time,amplitude
0.0,0.018633224204371173
4.987531172069826e-05,-0.024140391974561748
9.975062344139652e-05,0.0022032435209122844
0.00014962593516209475,-0.008537272665369964
0.00019950124688279303,-0.003155789194854383
0.00024937655860349125,-0.007925697305811536
0.0002992518703241895,-0.02115390334380025
0.00034912718204488776,-0.004966335634417545
0.00039900249376558606,0.03320150808325651
0.0004488778054862843,-0.0026054027790039197
0.0004987531172069825,0.005696401322440838
0.0005486284289276808,0.0017327658544346804
0.000598503740648379,-0.029489826324539933
0.0006483790523690773,-0.006847537205939565
0.0006982543640897755,-0.013688133518895716
0.0007481296758104738,0.00568174654319466
0.0007980049875311721,0.0032004914130769257
0.0008478802992518703,-0.013834488602968483
0.0008977556109725686,0.010105939793287904
0.0009476309226932668,0.006513512723854749
0.000997506234413965,0.006301222045815089
0.0010473815461346633,0.0015684596115222212
0.0010972568578553616,0.004589708010852922
0.00114713216957606,-0.0002851033892533449
0.001197007481296758,-0.0235242651990393
0.0012468827930174563,-0.021591046165813615
0.0012967581047381546,-0.017342178855399928
0.001346633416458853,-0.03171244973539488
0.001396508728179551,-0.0007644732538488403
0.0014463840399002493,0.018980234229634137
0.0014962593516209476,-0.010635470845101632
0.001546134663341646,-0.017186217439098574
0.0015960099750623442,0.012592491007407601
0.0016458852867830423,-0.0023941086428721807
0.0016957605985037406,-0.003473110168571011
0.001745635910224439,-0.008937972041675561
0.0017955112219451373,-0.027564899692993004
0.0018453865336658353,-0.022427416023597022
0.0018952618453865336,0.0043584837744768175
0.001945137157107232,-0.01592377242186068
0.00199501246882793,0.005615216966794614
0.0020448877805486283,0.00597052959697798
0.0020947630922693266,-0.01747586495936651
0.002144638403990025,-0.011866812626232844
0.0021945137157107233,-0.013177027561761308
0.0022443890274314216,-0.012477127715502122
0.00229426433915212,-0.024701872982763766
0.0023441396508728177,-0.009386695818840206
0.002394014962593516,-0.02654799552208256
0.0024438902743142144,-0.02142158605651205
0.0024937655860349127,-0.018806298707221062
0.002543640897755611,-0.00013774950977766057
0.0025935162094763093,-0.017347886571151046
0.0026433915211970076,-0.004460608457740522
0.002693266832917706,-0.03162016254028682
0.002743142144638404,-0.00023474338333500516
0.002793017456359102,-0.006925916442087487
0.0028428927680798004,-0.014606050967424686
0.0028927680798004987,-0.05215060322508146
0.002942643391521197,-0.03304868914930292
0.0029925187032418953,-0.009233456333523765
0.0030423940149625936,-0.017274783551303845
0.003092269326683292,0.00642443474881187
0.00314214463840399,-0.03279623600669747
0.0031920199501246885,-0.014698556938255156
0.0032418952618453864,-0.03580199259992719
0.0032917705735660847,-0.03652795064997992
0.003341645885286783,-0.02437458758725838
0.0033915211970074813,0.0026189544006856025
0.0034413965087281796,-0.03762646922211278
0.003491271820448878,0.0015739566539854054
0.003541147132169576,-0.031842621389238504
0.0035910224438902745,-0.021495684417563346
0.0036408977556109724,-0.009927342577377247
0.0036907730673316707,-0.05994107421117095
0.003740648379052369,-0.009800818346025317
0.0037905236907730673,-0.02491175525874197
0.0038403990024937656,0.0021695287208036984
0.003890274314214464,-0.0074561613225624605
0.003940149625935162,-0.03584972014728224
0.00399002493765586,-0.012468044678854654
0.004039900249376558,-0.012298222639513481
0.004089775561097257,-0.03622299034295688
0.004139650872817955,-0.004231191909661347
0.004189526184538653,-0.006243142029737926
0.004239401496259352,-0.029866655588997128
0.00428927680798005,-0.025860346856749084
0.004339152119700748,-0.03672754193023382
0.0043890274314214465,-0.04005129197338046
0.004438902743142145,-0.021611044051614525
0.004488778054862843,-0.009372293526877424
0.004538653366583541,-0.005024235316566206
0.00458852867830424,-0.033788393233400646
0.004638403990024938,-0.017865944545756657
0.0046882793017456355,-0.012435597843877069
0.004738154613466334,-0.02844855958235415
0.004788029925187032,-0.02410458089787554
0.00483790523690773,-0.03883921144879825
0.004887780548628429,0.002549885507237285
0.004937655860349127,-0.003201670202654071
0.004987531172069825,-0.03580719676942962
0.005037406483790524,-0.011560832386541719
0.005087281795511222,-0.0007350069910726439
0.00513715710723192,-0.014685594584612239
0.0051870324189526185,-0.007661528627115624
0.005236907730673317,0.0009678891577839382
0.005286783042394015,-0.032957966208746144
0.0053366583541147134,-0.00441127680675193
0.005386533665835412,-0.021682036699400397
0.00543640897755611,-0.021816252434606977
0.005486284289276808,-0.011870951301872823
0.005536159600997507,-0.03638081782903667
0.005586034912718204,-0.012660032418681666
0.005635910224438902,-0.0260052768636354
0.005685785536159601,-0.01671529132015857
0.005735660847880299,-0.011536311029470843
0.005785536159600997,-0.03639981266328628
0.005835411471321696,-0.016913846824673603
0.005885286783042394,-0.05501197193756373
0.005935162094763092,-0.0038487779333941322
0.0059850374064837905,-0.007722596552112489
0.006034912718204489,-0.011502156214825135
0.006084788029925187,-0.012944785513972292
0.0061346633416458855,-0.01069756280029209
0.006184538653366584,-0.01235736037242973
0.006234413965087282,0.006619499001941469
0.00628428927680798,-6.476550779539389e-05
0.006334164588528679,-0.038324648471489156
0.006384039900249377,-0.0341712037495092
0.006433915211970074,-0.030983809207272263
0.006483790523690773,-0.02025569955825777
0.006533665835411471,-0.011688701894268391
0.006583541147132169,-0.054653393979232384
0.006633416458852868,-0.010572186033338106
0.006683291770573566,-0.007126438254921116
0.006733167082294264,-0.03808052720737262
0.0067830423940149626,-0.013624262622957605
0.006832917705735661,-0.03043560670577517
0.006882793017456359,-0.03987466507698975
0.0069326683291770575,-0.014464971275863655
0.006982543640897756,-0.014383505656699614
0.007032418952618454,-0.024813904016895483
0.007082294264339152,-0.0035931140883665377
0.007132169576059851,-0.011620962356613748
0.007182044887780549,-0.021070777051160623
0.007231920199501247,0.010192658975487661
0.007281795511221945,-0.023955193355521973
0.007331670822942643,0.000866977931707506
0.007381546134663341,-0.01790948277903259
0.00743142144638404,-0.020410466448207785
0.007481296758104738,-0.01662035067860331
0.007531172069825436,0.013103510783958078
0.007581047381546135,-0.020827105391492275
0.007630922693266833,-0.018069170440014087
0.007680798004987531,-0.043069523621702674
0.0077306733167082295,0.009965474616677704
0.007780548628428928,0.007167050209953308
0.007830423940149626,0.006561953679712511
0.007880299251870324,-0.0010111465026177938
0.007930174563591023,0.009321455932498526
0.00798004987531172,-0.012769559622571551
0.00802992518703242,-0.003416896587550692
0.008079800498753117,-0.022424924919969405
0.008129675810473816,-0.006575245339546201
0.008179551122194513,-0.014464543038113196
0.008229426433915213,0.0009094757531805664
0.00827930174563591,-0.0456219662409439
0.00832917705735661,-0.005709460217040387
0.008379052369077307,-0.024451688164188443
0.008428927680798006,-0.026845525843209404
0.008478802992518703,0.004355967307564646
0.0085286783042394,-0.011377504503587585
0.0085785536159601,-0.022885873710568258
0.008628428927680797,-0.023809742060003674
0.008678304239401496,0.01466321867918232
0.008728179551122194,0.0032202378696784906
0.008778054862842893,0.0011576789425832741
0.00882793017456359,0.0030938429788073428
0.00887780548628429,-0.0058414461163813144
0.008927680798004987,0.026147670522625923
0.008977556109725686,-0.006471791613912944
0.009027431421446384,-0.012426290751661975
0.009077306733167083,-0.03338920955628328
0.00912718204488778,0.003825242564006396
0.00917705735660848,0.009866272356206983
0.009226932668329177,-0.04032192686821481
0.009276807980049876,-0.013869797579313527
0.009326683291770574,-0.0015822773871379293
0.009376558603491271,-0.02936428765239498
0.00942643391521197,-0.023652438103505417
0.009476309226932668,-0.019303566886498057
0.009526184538653367,-0.0208643136716437
0.009576059850374064,0.0020794959210380316
0.009625935162094763,-0.0025121580111642874
0.00967581047381546,-0.016669766794078188
0.00972568578553616,-0.008805721081469254
0.009775561097256857,0.0023376485448770774
0.009825436408977557,-0.027969754655878098
0.009875311720698254,-0.0036533015339021663
0.009925187032418953,0.0064867527550654235
0.00997506234413965,0.0009856871465788555
0.01002493765586035,-0.0005266216014806973
0.010074812967581047,-0.008143647643754352
0.010124688279301746,-0.004645402721908878
0.010174563591022444,-0.009554134260919379
0.010224438902743141,0.0007444230980106655
0.01027431421446384,-0.012329833967206738
0.010324189526184538,0.018295637316732005
0.010374064837905237,-0.00710972776861763
0.010423940149625935,-0.027065476938519815
0.010473815461346634,0.0271436627847855
0.010523690773067331,0.02334848242558265
0.01057356608478803,0.008617586666456655
0.010623441396508728,-0.013720521571253341
0.010673316708229427,-0.006951731626087398
0.010723192019950124,0.03348584527712808
0.010773067331670824,-0.030917001516420857
0.010822942643391521,0.008727854459718605
0.01087281795511222,0.00044118964575906756
0.010922693266832918,0.009244591401296298
0.010972568578553617,0.006815558757129231
0.011022443890274314,0.008541061449177816
0.011072319201995013,0.00021868327914082927
0.01112219451371571,0.017610977429522
0.011172069825436408,-0.0006749549291246038
0.011221945137157107,0.0295710004752587
0.011271820448877805,0.008596228157736918
0.011321695760598504,0.019608691326752116
0.011371571072319201,0.0054272276878308745
0.0114214463840399,0.001759776997225032
0.011471321695760598,0.021144724090301326
0.011521197007481297,0.029946659084081846
0.011571072319201995,-0.0050899363031527995
0.011620947630922694,0.0072252464230762896
0.011670822942643391,0.023978486857792677
0.01172069825436409,0.018652247758254335
0.011770573566084788,-0.0007152906552861868
0.011820448877805487,0.025639672039803472
0.011870324189526184,-0.0004466264506066634
0.011920199501246884,0.023853892709275206
0.011970074812967581,0.036428803211474424
0.012019950124688279,-0.0262078923076433
0.012069825436408978,0.014548427337640795
0.012119700748129675,0.02231929141571544
0.012169576059850374,0.03167363997922737
0.012219451371571072,0.016413587414853773
0.012269326683291771,0.005820391393787242
0.012319201995012468,-0.00010864067410420487
0.012369077306733168,0.03771466666985931
0.012418952618453865,0.018545250692598995
0.012468827930174564,0.01062766385266969
0.012518703241895262,0.0007580196628911087
0.01256857855361596,0.021560926267881135
0.012618453865336658,0.011982709258838889
0.012668329177057357,0.006033691872992571
0.012718204488778055,0.03325531979288204
0.012768079800498754,0.016555169634802264
0.012817955112219451,0.00788948874794212
0.012867830423940149,0.01333408764141634
0.012917705735660848,0.002112590873568734
0.012967581047381545,0.025865708210274518
0.013017456359102245,0.025455770862841638
0.013067331670822942,0.021198749067529613
0.013117206982543641,0.047180936705034184
0.013167082294264339,0.04252083812704833
0.013216957605985038,0.03407597278089402
0.013266832917705735,0.026897498648541168
0.013316708229426434,0.028474871654065332
0.013366583541147132,0.004151329416968356
0.013416458852867831,-0.003344829141850695
0.013466334164588529,-0.012565783411653538
0.013516209476309228,0.027790197827918937
0.013566084788029925,0.024522542104965628
0.013615960099750624,0.013771277367673739
0.013665835411471322,0.00977200749350918
0.01371571072319202,0.013251066545272078
0.013765586034912718,0.009364976658540893
0.013815461346633416,0.010053387522957289
0.013865336658354115,-0.012863469252429045
0.013915211970074812,0.019053664507737447
0.013965087281795512,0.020419588591357125
0.014014962593516209,0.03211013620475338
0.014064837905236908,0.00037168392592035887
0.014114713216957606,0.025415521661063707
0.014164588528678305,0.049595784611656354
0.014214463840399002,0.001938512489960978
0.014264339152119701,0.012015728088641469
0.014314214463840399,-0.0010033844847674375
0.014364089775561098,0.001912180238524401
0.014413965087281795,0.03752389109238326
0.014463840399002495,0.02435065206169949
0.014513715710723192,0.027420066711590037
0.01456359102244389,0.009523251401970231
0.014613466334164589,0.0021058312948763827
0.014663341645885286,0.014171374080686734
0.014713216957605985,0.0266805173248333
0.014763092269326683,0.031297865858238835
0.014812967581047382,0.028927502959250964
0.01486284289276808,0.006536736337165453
0.014912718204488778,0.0027215173070170226
0.014962593516209476,0.012787690277031092
0.015012468827930175,0.03011898008901174
0.015062344139650873,0.03195953332465773
0.015112219451371572,0.0456172583974021
0.01516209476309227,0.02403136072108263
0.015211970074812968,0.029712830266477176
0.015261845386533666,0.012102239732447449
0.015311720698254365,0.025603199587088156
0.015361596009975062,0.02830871179153997
0.01541147132169576,0.05286133942108433
0.015461346633416459,0.05222382168503571
0.015511221945137156,0.009525126154322446
0.015561097256857856,0.009879987279699616
0.015610972568578553,0.03552426635463489
0.015660847880299252,0.0065618974142289625
0.01571072319201995,0.03466420280042165
0.015760598503740647,0.015362580354794804
0.015810473815461346,0.019260329603749595
0.015860349127182045,0.0031023086998460785
0.015910224438902745,0.014930350475181443
0.01596009975062344,0.044861583599947574
0.01600997506234414,0.018181583764783408
0.01605985037406484,0.029002210737462376
0.016109725685785538,0.03933179163207035
0.016159600997506234,0.003895854918937354
0.016209476309226933,0.015621801452363564
0.016259351620947632,0.03753634090676511
0.016309226932668328,0.025245056622525568
0.016359102244389027,0.018346180306766477
0.016408977556109726,0.016801703508099928
0.016458852867830425,0.025826122467552604
0.01650872817955112,-0.0013640406304821738
0.01655860349127182,0.025293267407497974
0.01660847880299252,0.0031992782718922204
0.01665835411471322,0.019445972354780378
0.016708229426433914,0.032475508115888785
0.016758104738154613,0.03540658346040683
0.016807980049875312,0.010960118904924984
0.01685785536159601,0.0382445678468131
0.016907730673316707,0.027283825171262106
0.016957605985037406,0.005639347140993086
0.017007481296758106,-0.0006758151356378722
0.0170573566084788,-0.002971658244886762
0.0171072319201995,0.0032939670653734723
0.0171571072319202,0.013327224254559822
0.0172069825436409,0.04738232349664763
0.017256857855361595,-0.013401252853055143
0.017306733167082294,0.05229054800296376
0.017356608478802993,0.015244655065058073
0.017406483790523692,0.009852907256440679
0.017456359102244388,-0.002176086831788996
0.017506234413965087,0.027676252630711516
0.017556109725685786,0.011092929642634353
0.017605985037406485,0.009646711058535082
0.01765586034912718,0.027286119770408353
0.01770573566084788,-0.0011969694046141104
0.01775561097256858,0.04150436412250747
0.01780548628428928,0.0037476531969323663
0.017855361596009974,0.009050523974963299
0.017905236907730673,0.007617082286686592
0.017955112219451373,0.011828744511463575
0.018004987531172068,0.025323351407354325
0.018054862842892767,0.02142187152841362
0.018104738154613467,0.047702273192187686
0.018154613466334166,0.030447405815677637
0.01820448877805486,0.006572521149649387
0.01825436408977556,0.015375964025122809
0.01830423940149626,0.009368145648963967
0.01835411471321696,-0.013140828675215556
0.018403990024937655,0.014371273956640764
0.018453865336658354,0.013606414862141127
0.018503740648379053,0.026340001595965386
0.018553615960099752,0.034121561555317294
0.018603491271820448,-0.013534522984518533
0.018653366583541147,0.022403894035504177
0.018703241895261846,-0.005023267551648669
0.018753117206982542,0.031857467390061726
0.01880299251870324,0.03233487150261506
0.01885286783042394,-0.011088808139083176
0.01890274314214464,0.004713652461965655
0.018952618453865335,-0.013622794936529237
0.019002493765586034,-0.0019424188348547942
0.019052369077306733,-0.004203615224134654
0.019102244389027433,-0.0028064938745392815
0.01915211970074813,-0.005781095902732564
0.019201995012468828,0.017550036521372367
0.019251870324189527,0.03420581873854149
0.019301745635910226,-0.01215869179989551
0.01935162094763092,-0.009373476295913391
0.01940149625935162,0.0030890820363169494
0.01945137157107232,-0.022708479853141512
0.01950124688279302,0.020073132297290124
0.019551122194513715,-0.017285800097743394
0.019600997506234414,-0.010822745704466754
0.019650872817955113,-0.025781109569240776
0.01970074812967581,-0.0006183893283956024
0.019750623441396508,0.01935371425613346
0.019800498753117207,0.017502193070390068
0.019850374064837906,0.02151705379493856
0.019900249376558602,0.03297578189586473
0.0199501246882793,0.011353252923199868
0.02,-0.026384797505999202
0.0200498753117207,0.0010155816609121514
0.020099750623441395,0.003937188386855535
0.020149625935162094,0.0004519916769278753
0.020199501246882794,0.01632596065302111
0.020249376558603493,0.018647433717698843
0.02029925187032419,-0.018689359396357567
0.020349127182044888,-0.01610983146059008
0.020399002493765587,0.018094706747863613
0.020448877805486283,-0.02202520216363467
0.02049875311720698,-0.014318092150456612
0.02054862842892768,-0.016241501040581755
0.02059850374064838,-0.009764350334600174
0.020648379052369076,-0.027639700490043675
0.020698254364089775,0.01136332253065989
0.020748129675810474,-0.009952906005757071
0.020798004987531173,-0.008225498451191634
0.02084788029925187,0.014532085035807923
0.020897755610972568,0.009420998182959436
0.020947630922693267,-0.004130236939287496
0.020997506234413967,-0.006386369128780985
0.021047381546134662,-0.0020268673940408016
0.02109725685785536,0.008702048903227736
0.02114713216957606,0.011968181580933938
0.02119700748129676,-0.013238191900762076
0.021246882793017455,0.002305687030127882
0.021296758104738155,0.012318651465270105
0.021346633416458854,-0.01795695627311103
0.02139650872817955,-0.04371168447579105
0.02144638403990025,-0.00860765946892851
0.021496259351620948,-0.00279733615570344
0.021546134663341647,-0.02584954013270035
0.021596009975062343,-0.016103701932260864
0.021645885286783042,0.010959838661151912
0.02169576059850374,-0.015799330554001408
0.02174563591022444,0.002698385750639954
0.021795511221945136,-0.007403124059301352
0.021845386533665835,-0.022188707261461327
0.021895261845386534,0.004586480036052363
0.021945137157107233,-0.007762292464679934
0.02199501246882793,0.00016357768294937222
0.02204488778054863,0.0010120679999083351
0.022094763092269327,-0.002616687743499182
0.022144638403990027,0.015125807555927344
0.022194513715710722,-0.0030541777689790488
0.02224438902743142,0.008097567366882975
0.02229426433915212,-0.033582488812446604
0.022344139650872816,-0.0008756406017300291
0.022394014962593516,-0.023933968464688406
0.022443890274314215,0.012855640918832819
0.022493765586034914,-0.026422005821028424
0.02254364089775561,-0.028762008148724837
0.02259351620947631,-0.04543215761047386
0.022643391521197008,0.005974786223400769
0.022693266832917707,0.018775169201056242
0.022743142144638403,-0.03458299410968067
0.022793017456359102,0.00686413987016519
0.0228428927680798,0.0076131578168182334
0.0228927680798005,-0.026361959479458703
0.022942643391521196,-0.029039224254848603
0.022992518703241895,0.0006446597677538714
0.023042394014962594,0.007767883896843054
0.02309226932668329,-0.024000689970939085
0.02314214463840399,-0.02525732847897607
0.02319201995012469,-0.014545051641357797
0.023241895261845388,-0.0188366583271726
0.023291770573566083,-0.02224473744092732
0.023341645885286783,-0.020921277022212588
0.02339152119700748,-0.004680596957168456
0.02344139650872818,-0.02653580513144948
0.023491271820448877,-0.004390141841068717
0.023541147132169576,-0.012308246398410246
0.023591022443890275,-0.028831545578912418
0.023640897755610974,-0.026261239537376524
0.02369077306733167,0.014903724462507324
0.02374064837905237,-0.013744930222461283
0.023790523690773068,-0.02789959555065321
0.023840399002493767,-0.011202370112277116
0.023890274314214463,-0.012880774165843177
0.023940149625935162,-0.02005246025316739
0.02399002493765586,-0.02236212218096962
0.024039900249376557,-0.01784897034881608
0.024089775561097256,-0.014401365195629465
0.024139650872817955,-0.03246399862613463
0.024189526184538655,-0.02544663615366108
0.02423940149625935,-0.02962968122007953
0.02428927680798005,0.016353914616762628
0.02433915211970075,-0.008860784210249465
0.024389027431421448,-0.041736592803506854
0.024438902743142144,-0.013780321825604167
0.024488778054862843,-0.01866347080340288
0.024538653366583542,-0.01674825805391516
0.02458852867830424,-0.013075684727022117
0.024638403990024937,-0.0013327421702976731
0.024688279301745636,-0.025041570460812533
0.024738154613466335,-0.0178807621329005
0.02478802992518703,-0.017918844793072864
0.02483790523690773,-0.024312085273100727
0.02488778054862843,-0.010875759033724963
0.02493765586034913,-0.002187445171105109
0.024987531172069824,-0.000765152273901934
0.025037406483790523,-0.027792734607859675
0.025087281795511222,-0.006754971494831768
0.02513715710723192,-0.03494277474740405
0.025187032418952617,-0.019554513596450808
0.025236907730673316,-0.023543304775062654
0.025286783042394016,-0.021169848790639902
0.025336658354114715,-0.0035771051192071083
0.02538653366583541,-0.003099817957123047
0.02543640897755611,-0.050114300778204834
0.02548628428927681,-0.03589189156115209
0.025536159600997508,-0.027611610053221564
0.025586034912718204,-0.027211668525951423
0.025635910224438903,-0.04586608080094427
0.025685785536159602,0.013112670972040615
0.025735660847880298,-0.0264127743396987
0.025785536159600997,-0.036170844412233755
0.025835411471321696,-0.009273327623860201
0.025885286783042395,-0.016791441643635607
0.02593516209476309,-0.0377227886694704
0.02598503740648379,-0.0012059177195717675
0.02603491271820449,-0.022586881638988827
0.02608478802992519,-0.03097587731953481
0.026134663341645884,-0.025741937447499808
0.026184538653366583,-0.012672761812693771
0.026234413965087282,-0.02342613897206679
0.02628428927680798,-0.0319704786966839
0.026334164588528677,-0.008773489994011573
0.026384039900249377,0.00476616916405212
0.026433915211970076,-0.009740280682792517
0.02648379052369077,-0.03880366024029684
0.02653366583541147,0.013268731300431151
0.02658354114713217,0.0020282865127187674
0.02663341645885287,-0.0031160720583597538
0.026683291770573565,-0.03223238637760975
0.026733167082294264,-0.04992941365536147
0.026783042394014963,-0.011816330435814244
0.026832917705735662,-0.012821164747496094
0.026882793017456358,-0.007913589424606321
0.026932668329177057,-0.01763927753083178
0.026982543640897756,-0.006954458624004119
0.027032418952618455,-0.025217686567809837
0.02708229426433915,-0.0026140531763655245
0.02713216957605985,-0.0312556154598662
0.02718204488778055,-0.027574197797914493
0.02723192019950125,-0.004907072048328659
0.027281795511221944,-0.010538523540293516
0.027331670822942643,0.020428768707110627
0.027381546134663343,-0.025903573763424975
0.02743142144638404,-0.014927479584941384
0.027481296758104738,0.010018610567926915
0.027531172069825437,-0.04095469854332004
0.027581047381546136,0.00030239841750351673
0.02763092269326683,-0.021102731019333805
0.02768079800498753,-0.00029992407737060127
0.02773067331670823,-0.017737046632833875
0.02778054862842893,0.013842684597958578
0.027830423940149625,-0.009338333930047972
0.027880299251870324,0.009620061621509655
0.027930174563591023,-0.017671126023885167
0.027980049875311722,-0.0302326210645732
0.028029925187032418,-0.024582090107714484
0.028079800498753117,0.014772544165144213
0.028129675810473816,-0.026197708324951864
0.028179551122194512,-0.029854129171773748
0.02822942643391521,-0.011202621992962231
0.02827930174563591,-0.010963053593157671
0.02832917705735661,-0.001791887851776937
0.028379052369077305,-0.008831601528374335
0.028428927680798004,0.013579306302927979
0.028478802992518704,-0.012061109717969153
0.028528678304239403,-0.008483693211964313
0.0285785536159601,0.008508392442156572
0.028628428927680798,0.01896208292395011
0.028678304239401497,-0.008407134253579206
0.028728179551122196,0.00028244538449284477
0.02877805486284289,-0.003045598578408047
0.02882793017456359,-0.005330270780392126
0.02887780548628429,0.0003235111278656272
0.02892768079800499,-0.005340375258924203
0.028977556109725685,-0.012067783853454087
0.029027431421446384,0.005101234945345331
0.029077306733167083,-0.005219099253833445
0.02912718204488778,0.0022426835282678675
0.029177057356608478,-0.015493876871224155
0.029226932668329177,0.010149184253235449
0.029276807980049877,-0.01647789996703078
0.029326683291770572,-0.00016309601380311853
0.02937655860349127,0.0004176107013605895
0.02942643391521197,-0.00545057499831723
0.02947630922693267,0.014224762186258148
0.029526184538653365,0.0005052737126574152
0.029576059850374065,0.030363388795869795
0.029625935162094764,-0.010949821973860189
0.029675810473815463,-0.01849200147931864
0.02972568578553616,-0.013473343567056659
0.029775561097256858,-0.020863572625644422
0.029825436408977557,-0.00822832436307398
0.029875311720698253,0.025529062871203892
0.029925187032418952,-0.011989942501989582
0.02997506234413965,0.009147741906031844
0.03002493765586035,0.03038872295983477
0.030074812967581046,0.00889877748234613
0.030124688279301745,0.033670531490424
0.030174563591022444,0.02049478685487959
0.030224438902743143,0.020083381961713283
0.03027431421446384,-0.0013627668620201788
0.03032418952618454,0.002909291347168346
0.030374064837905237,0.024453309720022756
0.030423940149625937,-0.010764552963460496
0.030473815461346632,-0.004864890745183075
0.03052369077306733,0.018930143280295075
0.03057356608478803,-0.018605889944364885
0.03062344139650873,0.004662434297483202
0.030673316708229426,-0.009445564058682836
0.030723192019950125,0.006372416080887851
0.030773067331670824,0.007603753933334272
0.03082294264339152,-0.0022698508078725244
0.03087281795511222,0.028337228313392394
0.030922693266832918,0.018483216908720103
0.030972568578553617,0.01072996489015228
0.031022443890274313,-0.005516858748494549
0.031072319201995012,0.04887690732081034
0.03112219451371571,-0.007634882708831069
0.03117206982543641,0.010925665245870466
0.031221945137157106,-0.014589729280559209
0.03127182044887781,0.0297802945080931
0.031321695760598504,-0.016650629772690856
0.0313715710723192,0.015666572347794373
0.0314214463840399,0.01961955249413732
0.0314713216957606,-0.010859673971965035
0.031521197007481294,0.03498748957492151
0.031571072319202,0.021250389866819923
0.03162094763092269,0.01880774024933113
0.03167082294264339,0.02673510199671158
0.03172069825436409,-0.012485502712680969
0.03177057356608479,0.023021019858964473
0.03182044887780549,0.020629841228379627
0.031870324189526185,-0.008437296689938504
0.03192019950124688,0.012208776170305611
0.03197007481296758,0.028626708793806716
0.03201995012468828,-0.0041772316907866
0.032069825436408975,0.001721127721973914
0.03211970074812968,0.041244341788717685
0.03216957605985037,0.0036238713031818606
0.032219451371571076,0.026839995209000822
0.03226932668329177,0.017942977926638674
0.03231920199501247,0.03553596984725638
0.03236907730673317,0.028120442822687847
0.032418952618453865,0.019281159901732042
0.03246882793017456,0.03647115830368422
0.032518703241895264,0.026558370035374528
0.03256857855361596,0.009846355741620315
0.032618453865336655,0.03533444397003637
0.03266832917705736,-0.028667468153393983
0.032718204488778053,0.03444251694152413
0.032768079800498756,0.03854642946571336
0.03281795511221945,0.007357319906345408
0.03286783042394015,0.029949773006777966
0.03291770573566085,0.01886312239936008
0.032967581047381546,0.032987043783724815
0.03301745635910224,0.019043013741680978
0.033067331670822944,0.029821192350129574
0.03311720698254364,0.04884097594755872
0.03316708229426434,0.010580338074900601
0.03321695760598504,0.02420949229702226
0.033266832917705734,0.017833163671361143
0.03331670822942644,-0.01735916040826925
0.03336658354114713,0.017267295060626187
0.03341645885286783,0.02145743798753847
0.03346633416458853,0.014037964117887495
0.033516209476309226,0.020025383054702858
0.03356608478802992,0.055495721637861664
0.033615960099750625,0.01974837971002073
0.03366583541147132,0.03036767391464737
0.03371571072319202,0.055631265023912295
0.03376558603491272,0.02942092227204811
0.033815461346633414,-0.013586453929007057
0.03386533665835412,0.022161121816519247
0.03391521197007481,0.03038161653648265
0.03396508728179551,0.024155217246236798
0.03401496259351621,0.034267353067961547
0.03406483790523691,0.029059915985565482
0.0341147132169576,0.01551252134960764
0.034164588528678305,0.014744191132537311
0.034214463840399,0.013097986996767591
0.034264339152119704,0.01934088503367994
0.0343142144638404,0.01979455665020877
0.034364089775561095,0.005166897684067355
0.0344139650872818,0.02957727533483922
0.03446384039900249,0.011858877525402661
0.03451371571072319,0.02784216370317097
0.03456359102244389,0.023281490763417432
0.03461346633416459,0.023749871384709444
0.03466334164588529,-0.01880100643179946
0.034713216957605986,0.024976701158374574
0.03476309226932668,-0.0029484999833371307
0.034812967581047384,0.02628214253104831
0.03486284289276808,0.014082024954175081
0.034912718204488775,0.039836866932098085
0.03496259351620948,0.039354187462674675
0.035012468827930174,0.0017866516787599408
0.03506234413965087,0.013855263446228533
0.03511221945137157,0.03496931121199312
0.03516209476309227,0.012671960074051738
0.03521197007481297,0.018847584164163145
0.035261845386533666,0.015191076657727377
0.03531172069825436,0.011125442838543002
0.035361596009975065,0.022605213908767692
0.03541147132169576,0.02557671300899717
0.035461346633416456,0.027871897684281007
0.03551122194513716,0.020982753112063775
0.035561097256857854,-0.012579587016853487
0.03561097256857856,0.029608477042041066
0.03566084788029925,0.046077611087943664
0.03571072319201995,0.010304888092071304
0.03576059850374065,0.0208103761662052
0.03581047381546135,0.014263051156333521
0.03586034912718204,0.03214801163661907
0.035910224438902745,0.015387185732276437
0.03596009975062344,0.037968569146338255
0.036009975062344136,0.01909772360497599
0.03605985037406484,0.022782510667319636
0.036109725685785535,0.03917564551185552
0.03615960099750624,0.019099237066009987
0.03620947630922693,0.020129104434373418
0.03625935162094763,0.04259542559419123
0.03630922693266833,0.005230526473379869
0.03635910224438903,0.01625701425500654
0.03640897755610972,0.017733199618886884
0.036458852867830426,0.020784226650407016
0.03650872817955112,0.028971853485679794
0.036558603491271824,0.015767258171071996
0.03660847880299252,0.030131700273599182
0.036658354114713215,0.026568603848095076
0.03670822942643392,0.021933706466111282
0.036758104738154614,-0.0063404322306559666
0.03680798004987531,0.003736507689014231
0.03685785536159601,0.005758392116682404
0.03690773067331671,-0.017295895515492724
0.0369576059850374,0.023908718166648642
0.037007481296758106,0.01425313341113408
0.0370573566084788,0.010215612425805173
0.037107231920199504,0.006710446527171041
0.0371571072319202,0.014935092907637035
0.037206982543640896,0.024442230807238865
0.0372568578553616,0.023124079706967636
0.037306733167082294,0.032172502603113044
0.03735660847880299,0.0010552592899634276
0.03740648379052369,0.010481811984478537
0.03745635910224439,-0.0025213461986769367
0.037506234413965084,0.0319202165933858
0.037556109725685786,0.015191397650019945
0.03760598503740648,0.022142179247344566
0.037655860349127185,0.01846443610286761
0.03770573566084788,0.014667653631655824
0.037755610972568576,-0.004326942110342662
0.03780548628428928,0.002302979439205542
0.037855361596009975,0.021414922543233097
0.03790523690773067,0.017096197766573056
0.03795511221945137,0.014338668428856324
0.03800498753117207,0.01211627393625049
0.03805486284289277,0.025236626604785494
0.03810473815461347,-0.008990026267636937
0.03815461346633416,0.04480054793481064
0.038204488778054865,0.010345120713106792
0.03825436408977556,0.01488518969723127
0.03830423940149626,0.020551919541487614
0.03835411471321696,0.012956643480802374
0.038403990024937655,0.024252147697575346
0.03845386533665835,0.018724937948290343
0.03850374064837905,0.004074693474343579
0.03855361596009975,0.00072684549712718
0.03860349127182045,0.01853064280590923
0.03865336658354115,-0.0026253800715245485
0.03870324189526184,0.008006950825167117
0.038753117206982546,0.007674760471883609
0.03880299251870324,0.020716899024585997
0.03885286783042394,-0.006208985704716046
0.03890274314214464,0.015976370845478545
0.038952618453865336,0.02954625392925456
0.03900249376558604,0.005297000642686747
0.039052369077306734,0.004568837516893187
0.03910224438902743,-0.024103783094115414
0.03915211970074813,0.003312404898681223
0.03920199501246883,0.00954497470559233
0.039251870324189524,0.02430704705094087
0.039301745635910226,0.017244809782885374
0.03935162094763092,0.03433030089288856
0.03940149625935162,-0.0035245521710185693
0.03945137157107232,-0.007862380001064161
0.039501246882793016,0.019010424332790973
0.03955112219451372,0.011704892862583577
0.039600997506234414,0.03042852866624405
0.03965087281795511,0.020194628755054178
0.03970074812967581,-0.0039077727654356405
0.03975062344139651,-0.010043436003954916
0.039800498753117204,-0.00030368574233500395
0.03985037406483791,0.02219318315318973
0.0399002493765586,-0.022849812178887263
0.039950124688279305,0.005813974223172212
0.04,0.0036484750493358835
0.0400498753117207,0.023385181758339632
0.0400997506234414,0.01642448558381222
0.040149625935162095,-0.02817629343614947
0.04019950124688279,0.004072377191012206
0.04024937655860349,-0.027718507144338267
0.04029925187032419,-0.002318026330845956
0.040349127182044885,-0.007557266936775475
0.04039900249376559,0.0016577724613619448
0.04044887780548628,0.00876088904130392
0.040498753117206986,-0.019250724379741815
0.04054862842892768,-0.004350543557082492
0.04059850374064838,0.010043315656058345
0.04064837905236908,-0.022287782331023614
0.040698254364089775,0.007154530041115815
0.04074812967581047,0.016860590307242098
0.040798004987531174,-0.0008465095470162529
0.04084788029925187,-0.0010549866440234777
0.040897755610972565,0.013630751892717322
0.04094763092269327,-0.02409838273269392
0.04099750623441396,0.034446137626201086
0.041047381546134666,0.0028288598715943644
0.04109725685785536,-0.009867600411682383
0.04114713216957606,-0.013154861091363428
0.04119700748129676,0.00018006309416437188
0.041246882793017456,-0.030667889210511924
0.04129675810473815,0.010281211917547722
0.041346633416458854,-0.013494567222118212
0.04139650872817955,0.004506897566709859
0.04144638403990025,-0.01676010399124006
0.04149625935162095,-0.010606417156765077
0.041546134663341644,-0.03211319255853649
0.04159600997506235,0.014025185826986036
0.04164588528678304,0.006872224730442989
0.04169576059850374,-0.007789281793770071
0.04174563591022444,-0.009370353004191761
0.041795511221945136,-0.016109238906637718
0.04184538653366583,0.005580867737861975
0.041895261845386535,-0.004338106336333464
0.04194513715710723,-0.027026210023790215
0.04199501246882793,0.013281717736345238
0.04204488778054863,-0.012600877312289708
0.042094763092269324,0.006885776080481612
0.04214463840399003,-0.02622727095148152
0.04219451371571072,-0.007508724980139039
0.04224438902743142,-0.03047062580608685
0.04229426433915212,0.0017686316860198049
0.04234413965087282,-0.010267756084035455
0.04239401496259352,-0.002825205077601611
0.042443890274314215,-0.00010050054053225253
0.04249376558603491,-0.0034970671421523042
0.042543640897755614,-0.028132505021210986
0.04259351620947631,0.004317936241246871
0.042643391521197005,-0.027299077770719778
0.04269326683291771,-0.009601465259664184
0.0427431421446384,-0.019849514015118225
0.0427930174563591,-0.014009934341819992
0.0428428927680798,-0.006862386181789991
0.0428927680798005,-0.03050207916267063
0.0429426433915212,-0.025810041733901126
0.042992518703241896,-0.014727553634318505
0.04304239401496259,-0.0003198128303011291
0.043092269326683294,-0.016751892518738543
0.04314214463840399,-0.02819563533058437
0.043192019950124685,-0.0076140992574045725
0.04324189526184539,-0.018011982929422188
0.043291770573566084,-0.005337153272357554
0.043341645885286786,-0.0092846332565048
0.04339152119700748,-0.02541801723924509
0.04344139650872818,-0.04201604032256018
0.04349127182044888,-0.004074298386679602
0.043541147132169576,0.013054382814603117
0.04359102244389027,-0.04147062491513338
0.043640897755610975,0.0007424359171387535
0.04369077306733167,-0.019286878145887792
0.043740648379052366,-0.028267447258871328
0.04379052369077307,-0.01699938678701849
0.043840399002493764,-0.0015564573666355143
0.04389027431421447,-0.03310667526822949
0.04394014962593516,-0.003566299777267296
0.04399002493765586,-0.04176442543618482
0.04403990024937656,-0.00134240120940253
0.04408977556109726,-0.009838853603935094
0.04413965087281795,0.00195394980265259
0.044189526184538655,-0.006631769006665006
0.04423940149625935,-0.004991330547146037
0.04428927680798005,0.013504535191819843
0.04433915211970075,-0.02776409055319881
0.044389027431421445,-0.04088678285138379
0.04443890274314215,-0.001024811952009052
0.04448877805486284,-0.01354505589793363
0.04453865336658354,-0.0249244978557681
0.04458852867830424,-0.023320385915473602
0.04463840399002494,-0.025015770146109974
0.04468827930174563,-0.025552322293253462
0.044738154613466335,-0.018243283000560762
0.04478802992518703,-0.03728622368561646
0.044837905236907734,-0.012958490746536428
0.04488778054862843,-0.03993803577902938
0.044937655860349125,-0.011614724534221726
0.04498753117206983,-0.011622363018820081
0.045037406483790524,-0.01564152169049722
0.04508728179551122,-0.001039438165079851
0.04513715710723192,-0.024432087951639484
0.04518703241895262,-0.012868786824646514
0.04523690773067331,0.009698507989322792
0.045286783042394016,-0.010706190651777279
0.04533665835411471,-0.019294965267263545
0.045386533665835414,-0.019957476001383784
0.04543640897755611,-0.03986248302538903
0.045486284289276806,-0.03133345379632253
0.04553615960099751,-0.005639305676170258
0.045586034912718204,-0.009681921265651745
0.0456359102244389,-0.02638330094629325
0.0456857855361596,-0.02516437912286759
0.0457356608478803,-0.00952719172943594
0.045785536159601,-0.02077154616497904
0.045835411471321696,0.018166807193131844
0.04588528678304239,-0.01115079994679
0.045935162094763095,-0.041074744344518334
0.04598503740648379,-0.030504791299670903
0.046034912718204486,-0.027348091924174974
0.04608478802992519,-0.023442892830441923
0.046134663341645885,-0.018638339362644835
0.04618453865336658,-0.016811605850721542
0.04623441396508728,-0.013647895468806176
0.04628428927680798,0.0011593643894526294
0.04633416458852868,-0.02751877940775594
0.04638403990024938,-0.0019432908236213138
0.04643391521197007,-0.014256775267320476
0.046483790523690775,-0.012717123471230872
0.04653366583541147,0.015089639393872863
0.04658354114713217,-0.020569493608836684
0.04663341645885287,-0.0181607493685761
0.046683291770573565,0.028413353941236612
0.04673316708229427,-0.031120775270317792
0.04678304239401496,-0.0007282204246583431
0.04683291770573566,0.009072939611674071
0.04688279301745636,-0.03113400114220827
0.04693266832917706,-0.00459547925369418
0.04698254364089775,-0.011938682648181168
0.047032418952618456,-0.013011391052880765
0.04708229426433915,-0.01923872695111469
0.04713216957605985,0.021517360223750795
0.04718204488778055,-0.01143903993055809
0.047231920199501246,-0.006472413589635792
0.04728179551122195,-0.023148734802488247
0.047331670822942644,-0.02000038232900507
0.04738154613466334,-0.013763136042773037
0.04743142144638404,-0.023254704001442868
0.04748129675810474,-0.03023039953122577
0.047531172069825434,-0.005835337442438839
0.047581047381546136,0.012178680689242702
0.04763092269326683,-0.03376991168124993
0.047680798004987535,-0.009242315802302331
0.04773067331670823,-0.010309451330385274
0.047780548628428926,0.008469280839798029
0.04783042394014963,0.03219987660257882
0.047880299251870324,-0.010345581716830438
0.04793017456359102,-0.003114348035977701
0.04798004987531172,0.005638958943626144
0.04802992518703242,0.018040810829042637
0.048079800498753114,-0.04818800799152244
0.04812967581047382,-0.010566471963891337
0.04817955112219451,0.01516088056845604
0.048229426433915215,-0.014372112339526455
0.04827930174563591,-0.0005256570570739
0.048329177057356607,-0.014963643198961096
0.04837905236907731,-0.003575006877591082
0.048428927680798005,0.005850479062020585
0.0484788029925187,-0.01209366163275957
0.0485286783042394,0.003219162413276185
0.0485785536159601,-0.024011074818209733
0.048628428927680795,0.004050908469508484
0.0486783042394015,0.0002889227033931567
0.04872817955112219,-0.007163193217766063
0.048778054862842896,-0.008343081707457886
0.04882793017456359,0.003424670744591465
0.04887780548628429,0.022895191741979945
0.04892768079800499,0.021969946113508564
0.048977556109725685,0.016901684241366934
0.04902743142144638,0.00041436080316173667
0.049077306733167084,-0.017898300090207733
0.04912718204488778,0.0028255683036049533
0.04917705735660848,0.004375824140032818
0.04922693266832918,0.004816396168126732
0.04927680798004987,-0.008038872319129859
0.049326683291770576,0.027884154621020653
0.04937655860349127,0.015142842526567907
0.04942643391521197,-0.0002979991440452217
0.04947630922693267,0.01389295367355868
0.049526184538653366,-0.007538787829690092
0.04957605985037406,-0.03328284979858175
0.049625935162094764,0.0120007455725645
0.04967581047381546,-0.0051170434747743465
0.04972568578553616,-0.015339515348173561
0.04977556109725686,0.0010733661986679684
0.049825436408977554,0.012236634242318238
0.04987531172069826,-0.008982614772490655
0.04992518703241895,0.006018501055810576
0.04997506234413965,0.002446193138323914
0.05002493765586035,0.0014368473701572263
0.050074812967581046,-0.00542766844393312
0.05012468827930175,0.0014800356177034216
0.050174563591022445,0.01637276163841342
0.05022443890274314,-0.016742449808746
0.05027431421446384,-0.005089989452456991
0.05032418952618454,0.0014849300975370919
0.050374064837905234,0.0036417531295141617
0.05042394014962594,0.01772127124955113
0.05047381546134663,0.01593128493469633
0.05052369077306733,0.008025557830008339
0.05057356608478803,-0.00652516221457688
0.05062344139650873,-0.00043465611122230595
0.05067331670822943,0.018890394648124243
0.050723192019950125,0.00657977900450236
0.05077306733167082,-0.0005374375330558529
0.050822942643391524,0.013752434488227702
0.05087281795511222,0.013199907663092168
0.050922693266832915,0.022317823942723834
0.05097256857855362,-0.006192080021622425
0.05102244389027431,0.015269700185152427
0.051072319201995016,0.0061102510973947465
0.05112219451371571,-0.010944416969071018
0.05117206982543641,0.017531810650634746
0.05122194513715711,0.017398919832446753
0.051271820448877806,0.009542701063757106
0.0513216957605985,0.011742580805904965
0.051371571072319204,0.024624297038079654
0.0514214463840399,0.013794264628470696
0.051471321695760595,0.009582648738173556
0.0515211970074813,0.037220934262374925
0.051571072319201994,0.008851758580844835
0.051620947630922696,0.011484123415680758
0.05167082294264339,0.0004503075903203452
0.05172069825436409,0.01574591687450746
0.05177057356608479,0.0012475969465106946
0.051820448877805486,0.0005471554138486746
0.05187032418952618,0.036825632362552305
0.051920199501246884,0.02326886506708651
0.05197007481296758,-0.009883997950556033
0.052019950124688276,-0.014383808914462452
0.05206982543640898,-0.015200916893833898
0.052119700748129674,0.03258414866323312
0.05216957605985038,0.00796704648139556
0.05221945137157107,0.029391557408078566
0.05226932668329177,0.02209702095563698
0.05231920199501247,0.021775480997275245
0.05236907730673317,0.0070629828921792825
0.05241895261845386,0.020791857467417667
0.052468827930174565,0.013822337450508832
0.05251870324189526,0.016500687402472878
0.05256857855361596,0.029844029330252295
0.05261845386533666,0.02456516020760254
0.052668329177057355,0.03678429132666486
0.05271820448877806,-0.003057292369651698
0.05276807980049875,0.018696510412281497
0.05281795511221945,0.025695932824840464
0.05286783042394015,0.033955051476326326
0.05291770573566085,0.015718632541222324
0.05296758104738154,0.003895250226165794
0.053017456359102245,0.03291760149653076
0.05306733167082294,0.007263091229884293
0.053117206982543644,0.028124819888161307
0.05316708229426434,0.025708813320654306
0.053216957605985035,0.027258271345750148
0.05326683291770574,0.027950986089200044
0.053316708229426434,0.014248409978915511
0.05336658354114713,-0.00699035461812968
0.05341645885286783,0.007617190752959156
0.05346633416458853,0.027703004964665604
0.05351620947630923,0.05060057677563447
0.053566084788029926,-0.004088598418228145
0.05361596009975062,0.0044263417231240505
0.053665835411471324,0.018940588870366596
0.05371571072319202,0.017978249885661227
0.053765586034912716,0.013473300504749191
0.05381546134663342,0.05405670246131299
0.053865336658354114,0.024783434610454572
0.05391521197007481,0.012415634315566021
0.05396508728179551,-0.004328255404884872
0.05401496259351621,0.0007781768286812055
0.05406483790523691,0.02579202675570132
0.054114713216957606,0.028595623131891918
0.0541645885286783,0.029527953182305673
0.054214463840399005,0.028867643056616137
0.0542643391521197,0.04570918686555542
0.054314214463840396,0.016545732831261324
0.0543640897755611,0.02328489332647137
0.054413965087281795,0.026532037356585055
0.0544638403990025,0.0329170400070593
0.05451371571072319,0.009921726049499646
0.05456359102244389,0.04266865939734535
0.05461346633416459,0.016512856449150713
0.05466334164588529,0.040379865204342086
0.05471321695760598,0.009255803372556916
0.054763092269326685,0.0330469105707447
0.05481296758104738,0.016498048423098204
0.05486284289276808,0.012727329351563833
0.05491271820448878,0.010518145981221142
0.054962593516209475,0.02328349489702986
0.05501246882793018,0.01534006866192562
0.05506234413965087,-0.009565427765631823
0.05511221945137157,-0.001166363202654959
0.05516209476309227,0.03777269460093707
0.05521197007481297,0.014455249670367747
0.05526184538653366,0.02735012266777837
0.055311720698254366,0.06127560755116386
0.05536159600997506,0.013327596003907089
0.05541147132169576,-0.004604522396363338
0.05546134663341646,0.017454246738811626
0.055511221945137156,0.018236312886148583
0.05556109725685786,0.027782777229556035
0.055610972568578554,0.019951256103637783
0.05566084788029925,0.017605253630936353
0.05571072319201995,0.012180459936391318
0.05576059850374065,0.020744614626432022
0.055810473815461344,0.02188778406174514
0.055860349127182046,0.06648311641225035
0.05591022443890274,0.014433423311233543
0.055960099750623445,0.004138349755582912
0.05600997506234414,0.031086067102629598
0.056059850374064836,0.03157195327205677
0.05610972568578554,-0.006841736618753102
0.056159600997506234,0.004764839376490863
0.05620947630922693,0.021995012499704283
0.05625935162094763,0.0376487802216793
0.05630922693266833,0.021941730985804292
0.056359102244389024,0.048646574912939375
0.05640897755610973,0.03824045966760922
0.05645885286783042,0.034073799073965474
0.056508728179551125,0.027305321194068404
0.05655860349127182,0.029358842481046192
0.056608478802992516,-0.004945662610096425
0.05665835411471322,0.007551796015341493
0.056708229426433915,-0.0008234431794400358
0.05675810473815461,0.012473613341341207
0.05680798004987531,0.04438663689414578
0.05685785536159601,0.044544963404053756
0.05690773067331671,0.003572591436268178
0.05695760598503741,0.014600416497789079
0.0570074812967581,0.04960979700198703
0.057057356608478806,0.02186900760414447
0.0571072319201995,0.01221439515470209
0.0571571072319202,0.026759291843623505
0.0572069825436409,0.03834559992849794
0.057256857855361595,0.03791839848821052
0.05730673316708229,0.021590687283442277
0.057356608478802994,0.01551420997791087
0.05740648379052369,0.02370092562108577
0.05745635910224439,0.02802536061227663
0.05750623441396509,0.022276130365649856
0.05755610972568578,0.009327204308365823
0.057605985037406486,0.021646357316168475
0.05765586034912718,0.014313340000845054
0.05770573566084788,0.025572853918200168
0.05775561097256858,0.011998214770678587
0.057805486284289276,-0.00987807891848818
0.05785536159600998,-0.002992624301509178
0.057905236907730674,0.0005486943455519123
0.05795511221945137,-0.004868211964040855
0.05800498753117207,0.021336290752579534
0.05805486284289277,0.005202771576277495
0.058104738154613464,-0.003856815986823147
0.05815461346633417,0.030208749428115952
0.05820448877805486,0.008724345250507186
0.05825436408977556,0.014306273494370528
0.05830423940149626,0.0217212993143494
0.058354114713216956,0.01538282748142106
0.05840399002493766,0.015886492432892425
0.058453865336658355,0.022687670400720797
0.05850374064837905,0.0022931308422305275
0.05855361596009975,-0.010870188247004867
0.05860349127182045,7.2509941137857e-05
0.058653366583541144,0.022751852045856377
0.05870324189526185,0.0062491358520367695
0.05875311720698254,-0.0018977197212229988
0.05880299251870324,0.012973825492515145
0.05885286783042394,0.01879268317454978
0.05890274314214464,-0.010927234100441139
0.05895261845386534,-0.019736922912376914
0.059002493765586035,-0.010205481514177439
0.05905236907730673,0.009947086085592671
0.059102244389027433,0.03223778031806131
0.05915211970074813,0.011759803328286193
0.059201995012468825,-0.0007120149499998413
0.05925187032418953,-0.006178073853207056
0.05930174563591022,0.02473782785545078
0.059351620947630926,0.008506857834755029
0.05940149625935162,0.002375700999768782
0.05945137157107232,0.004294698822397613
0.05950124688279302,0.00020619415875776804
0.059551122194513716,0.010489321067085234
0.05960099750623441,0.024590132096594157
0.059650872817955114,-0.0007979757673404258
0.05970074812967581,-0.003487860811994115
0.059750623441396505,-0.005977905554687626
0.05980049875311721,0.01962572914886836
0.059850374064837904,0.04121579431288065
0.059900249376558606,0.0077911129512978575
0.0599501246882793,0.020549462316240896
0.06,0.011466393769964934
0.0600498753117207,0.006977740045490139
0.060099750623441396,0.0005999811821312674
0.06014962593516209,0.015439232520786293
0.060199501246882794,-0.0005811078285293527
0.06024937655860349,0.0016695646861308027
0.06029925187032419,-0.0021094413849584506
0.06034912718204489,0.020343747129450817
0.060399002493765584,0.015599135337327439
0.06044887780548629,0.0007449305409187523
0.06049875311720698,0.028560907051644463
0.06054862842892768,-0.004948836476459249
0.06059850374064838,0.01368203010252408
0.06064837905236908,0.005002820689023137
0.06069825436408977,0.008621755562492625
0.060748129675810475,0.01755102106416342
0.06079800498753117,0.003146657213596136
0.06084788029925187,-0.009305937964770715
0.06089775561097257,0.0010215771259789504
0.060947630922693265,0.013779587938775234
0.06099750623441397,0.026820792574685323
0.06104738154613466,-0.0005938648497380639
0.06109725685785536,0.004512650608532429
0.06114713216957606,0.0048950508796944655
0.06119700748129676,-0.0023813851627378104
0.06124688279301746,-0.01802177859026454
0.061296758104738155,0.00040762818558744444
0.06134663341645885,0.022077689938262257
0.061396508728179554,-0.002380221588960789
0.06144638403990025,0.0018514201725480838
0.061496259351620945,0.007896689060696495
0.06154613466334165,0.011191103146844983
0.061596009975062344,-0.024820848012828058
0.06164588528678304,-0.0047978527575195514
0.06169576059850374,-0.010325858621114226
0.06174563591022444,-0.02373531364238956
0.06179551122194514,-0.01626005415515864
0.061845386533665836,-0.004527090897321535
0.06189526184538653,0.019124104391687876
0.061945137157107234,-0.0024168970218134533
0.06199501246882793,-0.014065728922632017
0.062044887780548626,0.002522935774011227
0.06209476309226933,-0.020308056596150988
0.062144638403990024,0.0012162917188472
0.06219451371571072,-0.01041418512735035
0.06224438902743142,-0.0008402611765139633
0.06229426433915212,-0.008906544496498027
0.06234413965087282,-0.022693524293335945
0.062394014962593516,0.005880643561897473
0.06244389027431421,-0.02555744531503698
0.062493765586034915,0.0002390805515636741
0.06254364089775562,-0.030330062614857604
0.06259351620947631,0.008923986488538737
0.06264339152119701,-0.014616971321127178
0.0626932668329177,-0.030623042540163153
0.0627431421446384,-0.01767615612926847
0.0627930174563591,-0.009377197647309425
0.0628428927680798,-0.015132577319995451
0.0628927680798005,-0.0063189264241810175
0.0629426433915212,0.0021673266826725025
0.06299251870324189,-0.013200381167895877
0.06304239401496259,-0.0016924532698248864
0.0630922693266833,-0.0010402027912746713
0.063142144638404,0.0020337707293814414
0.06319201995012469,-0.03747625735369532
0.06324189526184539,-0.004929361672455761
0.06329177057356608,-0.015745561553116787
0.06334164588528678,-0.01556456822227072
0.06339152119700749,0.0018607497443110695
0.06344139650872818,-0.022934322621820248
0.06349127182044888,-0.013720329305994915
0.06354114713216957,-0.017528560070126452
0.06359102244389027,0.007589759835288271
0.06364089775561098,0.0042429474632849
0.06369077306733167,-0.00973563960956968
0.06374064837905237,-0.013029733492633805
0.06379052369077307,-0.03552616282599272
0.06384039900249376,0.008412832829512605
0.06389027431421446,-0.03915394709010103
0.06394014962593517,-0.03166950745006591
0.06399002493765586,-0.0160058057012416
0.06403990024937656,-0.00912488452654529
0.06408977556109725,-0.03521174013829252
0.06413965087281795,0.002844465979390653
0.06418952618453866,-0.0034212982440127715
0.06423940149625935,-0.015626574906085215
0.06428927680798005,-0.0042994719675544
0.06433915211970075,0.0009392003195171656
0.06438902743142144,-0.0037061119300700607
0.06443890274314215,0.009546867944426237
0.06448877805486285,-0.03714254481347028
0.06453865336658354,0.012425142615045504
0.06458852867830424,-0.02358661085573433
0.06463840399002493,-0.02624714821180947
0.06468827930174563,-0.03067701585076264
0.06473815461346634,0.00529217484712096
0.06478802992518704,0.01677429736297452
0.06483790523690773,-0.004449899113657091
0.06488778054862843,-0.03515479023421838
0.06493765586034912,-0.013127252413979846
0.06498753117206983,-0.00538936275678167
0.06503740648379053,0.012574901313394433
0.06508728179551122,-0.009928155236472027
0.06513715710723192,-0.01627834167712379
0.06518703241895261,0.004269091279942508
0.06523690773067331,-0.01633562093141271
0.06528678304239402,0.005994946075794132
0.06533665835411472,-0.03596471110102081
0.06538653366583541,-0.01743265857908914
0.06543640897755611,0.0023196451332223693
0.0654862842892768,-0.00016848320012291182
0.06553615960099751,-0.009740345464417731
0.06558603491271821,-0.015467230744030381
0.0656359102244389,0.027799384595725538
0.0656857855361596,-0.027722465527900902
0.0657356608478803,-0.008643962593052307
0.06578553615960099,-0.024377495592199906
0.0658354114713217,-0.04115839146786324
0.0658852867830424,-0.015099266774783474
0.06593516209476309,-0.012283061732547756
0.06598503740648379,-0.038579686113242403
0.06603491271820448,-0.03802340781297414
0.06608478802992519,-0.02278311657273373
0.06613466334164589,-0.019373599307076675
0.06618453865336658,-0.0009648571839629277
0.06623441396508728,-0.01117679368402871
0.06628428927680798,-0.02517317260380105
0.06633416458852869,-0.03583539815983072
0.06638403990024938,0.012898088640189286
0.06643391521197008,-0.008647691556268568
0.06648379052369077,-0.001474588090395702
0.06653366583541147,0.004806372534948689
0.06658354114713216,-0.01615126261456679
0.06663341645885287,-0.015592865522321149
0.06668329177057357,-0.0163417787539366
0.06673316708229426,0.014303113613893127
0.06678304239401496,-0.0365743614703879
0.06683291770573566,0.00673080478919681
0.06688279301745637,-0.009452164070563682
0.06693266832917706,-0.03593249155023212
0.06698254364089776,-0.02200363623291471
0.06703241895261845,0.005922622739278304
0.06708229426433915,-0.032981554211633034
0.06713216957605984,-0.011899933746006086
0.06718204488778055,-0.016338093231224537
0.06723192019950125,-0.01718211652136356
0.06728179551122195,-0.0217764351627584
0.06733167082294264,-0.031946413100867405
0.06738154613466334,-0.0023367943396547693
0.06743142144638405,0.0004926658266395084
0.06748129675810474,-0.00818489941088914
0.06753117206982544,-0.029127077717458778
0.06758104738154613,0.008196587418701783
0.06763092269326683,-0.031363526783238053
0.06768079800498752,0.006684816035454275
0.06773067331670823,-0.014399853566583125
0.06778054862842893,0.009619469946993468
0.06783042394014963,-0.03232916697033683
0.06788029925187032,-0.005798949390518022
0.06793017456359102,-0.014169743110545446
0.06798004987531173,-0.002478081002302241
0.06802992518703242,-0.008079245291514131
0.06807980049875312,0.009892411225386248
0.06812967581047381,0.007120378685736713
0.06817955112219451,0.0057562511926976785
0.0682294264339152,0.0030335984604436235
0.06827930174563591,0.003213393150737167
0.06832917705735661,0.0004493386530688452
0.0683790523690773,0.01156813823524477
0.068428927680798,-0.01726503537480905
0.0684788029925187,-0.013430162331353714
0.06852867830423941,-0.015138615366246886
0.0685785536159601,0.014330480673840889
0.0686284289276808,-0.023263330595935508
0.0686783042394015,-0.009084934868163256
0.06872817955112219,-0.019799286777450242
0.0687780548628429,-0.0007253196950065101
0.0688279301745636,0.002560324897932187
0.06887780548628429,-0.004317606725124585
0.06892768079800499,-0.00756553910823312
0.06897755610972568,-0.0037492041366402862
0.06902743142144638,-0.01895477079854179
0.06907730673316709,-0.004388479343309165
0.06912718204488778,-0.021592632838516816
0.06917705735660848,-0.017034066574354138
0.06922693266832917,-0.0003860631911162738
0.06927680798004987,0.002734318802907326
0.06932668329177058,0.0051371869008300965
0.06937655860349128,0.023743212364607278
0.06942643391521197,-0.00042339657617898986
0.06947630922693267,0.023061303921651503
0.06952618453865336,-0.016907365578969297
0.06957605985037406,-0.004611082387910968
0.06962593516209477,-0.002300809622743477
0.06967581047381546,-0.008764085072418427
0.06972568578553616,0.026135141493581357
0.06977556109725686,0.029860230298011672
0.06982543640897755,-0.008349096132332078
0.06987531172069826,0.005373863407753388
0.06992518703241896,-0.00020146693518048077
0.06997506234413965,0.011177480097520221
0.07002493765586035,0.012797915970493942
0.07007481296758104,0.017635594999356335
0.07012468827930174,-0.0003310727314931195
0.07017456359102245,-0.01791856125380168
0.07022443890274314,0.003536445977732862
0.07027431421446384,-0.002386898653384209
0.07032418952618454,-0.011925942061645442
0.07037406483790523,-0.0027777198224656872
0.07042394014962594,-0.00511724888859473
0.07047381546134664,0.010026242706984198
0.07052369077306733,0.0026288821982035446
0.07057356608478803,0.011876151557209268
0.07062344139650872,-0.011076753360592927
0.07067331670822943,0.005341606457004029
0.07072319201995013,0.005443973453834795
0.07077306733167082,0.031547718448577795
0.07082294264339152,0.015717791175028785
0.07087281795511222,-0.005969159695073081
0.07092269326683291,-0.0005582024255089517
0.07097256857855362,0.006236203830667333
0.07102244389027432,0.028381000646131672
0.07107231920199501,0.013323683825085919
0.07112219451371571,0.005882493733340323
0.0711720698254364,0.019928753845741068
0.07122194513715711,0.028388302577675197
0.07127182044887781,0.02323594795086041
0.0713216957605985,0.016051983989670705
0.0713715710723192,0.015096995297455852
0.0714214463840399,-0.006171293733142069
0.07147132169576059,0.0025887526293123034
0.0715211970074813,0.004626630937591551
0.071571072319202,0.004820336233998804
0.0716209476309227,0.03577254463604375
0.07167082294264339,0.031356444073438156
0.07172069825436408,0.0056763755159507
0.0717705735660848,0.030107171941423747
0.07182044887780549,0.03682049820089697
0.07187032418952619,0.041561185248471605
0.07192019950124688,0.02601248895800386
0.07197007481296758,0.03916838714365144
0.07201995012468827,0.00798917426917641
0.07206982543640898,0.004797965466506442
0.07211970074812968,0.017757660841652985
0.07216957605985037,-0.0021099402318134515
0.07221945137157107,0.018746258835614846
0.07226932668329177,0.029007093727365603
0.07231920199501247,0.03412835277086381
0.07236907730673317,0.03966364584169798
0.07241895261845387,0.014648360768704682
0.07246882793017456,-0.004386200671982025
0.07251870324189526,0.02065293016935059
0.07256857855361595,0.002301782708344597
0.07261845386533666,0.024139670181547702
0.07266832917705736,0.026938239712157436
0.07271820448877805,0.021844867141529167
0.07276807980049875,0.013524507724160797
0.07281795511221945,0.049341750600159606
0.07286783042394016,0.02382306170457569
0.07291770573566085,0.03755021147833351
0.07296758104738155,0.01333992763176679
0.07301745635910224,0.016917287608469823
0.07306733167082294,0.0167856748945748
0.07311720698254365,-0.009673560844185355
0.07316708229426434,0.03641933152827331
0.07321695760598504,0.032227004791196515
0.07326683291770573,0.018459843980909014
0.07331670822942643,0.027416770550698136
0.07336658354114713,0.03480608643689073
0.07341645885286784,0.012520669429724168
0.07346633416458853,-0.0006127387805921376
0.07351620947630923,0.002133495472529102
0.07356608478802992,0.024277911492288508
0.07361596009975062,0.033430913550554484
0.07366583541147133,0.021781038918674826
0.07371571072319202,0.01238947904573044
0.07376558603491272,0.024188505380969637
0.07381546134663342,0.02376126754312165
0.07386533665835411,0.015475958805436762
0.0739152119700748,0.030056468703704636
0.07396508728179552,0.034956036832199
0.07401496259351621,0.008786891884252395
0.07406483790523691,0.018762445381293222
0.0741147132169576,0.05067492775612331
0.0741645885286783,0.008779407414107768
0.07421446384039901,0.012420790521900295
0.0742643391521197,0.01666230554522164
0.0743142144638404,0.018593446507465645
0.0743640897755611,0.005987117551158282
0.07441396508728179,0.033875270291882455
0.07446384039900249,0.018655519404637957
0.0745137157107232,0.029698265360705186
0.07456359102244389,0.04003633675610961
0.07461346633416459,0.04276200312133886
0.07466334164588528,0.024799386315516786
0.07471321695760598,0.03978610432132557
0.07476309226932669,0.01770626730958847
0.07481296758104738,0.02134559878435347
0.07486284289276808,0.022278393651533345
0.07491271820448878,0.01851975781318133
0.07496259351620947,0.0429292107165088
0.07501246882793017,0.057717596323460386
0.07506234413965088,0.04210747526785098
0.07511221945137157,0.027477782240111322
0.07516209476309227,0.009899278072934486
0.07521197007481296,0.018242971807909292
0.07526184538653366,0.021536879032364863
0.07531172069825437,0.05277944229390014
0.07536159600997507,0.03205951120362535
0.07541147132169576,0.01605023345371162
0.07546134663341646,0.04120636486602543
0.07551122194513715,0.0020698456110537604
0.07556109725685786,0.0533266563962171
0.07561097256857856,0.00801551262334373
0.07566084788029925,0.02471814003887658
0.07571072319201995,0.02990562001835702
0.07576059850374064,0.030026332198917264
0.07581047381546134,0.03578782730676211
0.07586034912718205,0.009323387490610426
0.07591022443890275,0.026682185184251483
0.07596009975062344,0.022324260515104413
0.07600997506234414,0.04735265495676509
0.07605985037406483,0.04821880535935277
0.07610972568578554,0.026617140540132495
0.07615960099750624,0.04020112275125977
0.07620947630922693,0.05463574037657229
0.07625935162094763,0.025054748090113994
0.07630922693266833,0.03631174093134253
0.07635910224438902,0.013039668888301085
0.07640897755610973,0.007330395044351484
0.07645885286783043,0.012258748560370536
0.07650872817955112,0.034788077807456186
0.07655860349127182,0.0011626870713215137
0.07660847880299251,0.03411925429275435
0.07665835411471322,0.028411035625668796
0.07670822942643392,0.014468812981871698
0.07675810473815461,0.0002012984748822333
0.07680798004987531,0.01131029705461348
0.076857855361596,0.026320669955944613
0.0769077306733167,0.03880117250812889
0.07695760598503741,0.018529438952167875
0.0770074812967581,0.016983926483832876
0.0770573566084788,0.02504185553187281
0.0771072319201995,0.012036190318196511
0.0771571072319202,0.011834947163841158
0.0772069825436409,0.04468516979645523
0.0772568578553616,0.02171510712084823
0.0773067331670823,0.030952131672799376
0.07735660847880299,0.019721355230448167
0.07740648379052369,0.00547861894158788
0.0774563591022444,0.03469395600437719
0.07750623441396509,0.024514951622270128
0.07755610972568579,0.01962625488389055
0.07760598503740648,0.03316165467678795
0.07765586034912718,0.022092892587146928
0.07770573566084787,-0.02531023334821346
0.07775561097256858,0.011734174578012757
0.07780548628428928,0.04128150796954144
0.07785536159600998,0.014523157298988197
0.07790523690773067,0.014591734841728505
0.07795511221945137,-0.0040819162068918766
0.07800498753117208,0.020504047680444733
0.07805486284289277,0.004098789900141947
0.07810473815461347,0.015018302869935517
0.07815461346633416,0.04227274870495144
0.07820448877805486,0.010236143998297994
0.07825436408977555,0.018207815620452934
0.07830423940149626,0.008407759112718625
0.07835411471321696,0.005227282995168274
0.07840399002493766,0.019003955055508323
0.07845386533665835,0.009055489549912492
0.07850374064837905,0.014419328529597278
0.07855361596009976,0.01784918150597168
0.07860349127182045,0.02604669978321674
0.07865336658354115,0.011478202279053544
0.07870324189526184,0.012868982266043402
0.07875311720698254,0.0010219313264673482
0.07880299251870324,-0.006598547738545846
0.07885286783042394,0.0109576021889637
0.07890274314214464,0.04036213447276739
0.07895261845386534,0.012589137400178394
0.07900249376558603,0.030269038724931606
0.07905236907730673,-0.0011811198210933075
0.07910224438902744,-0.0014972640471359409
0.07915211970074813,0.008820940582851596
0.07920199501246883,0.0013805993732547133
0.07925187032418952,0.04900008230475096
0.07930174563591022,0.011999517076603052
0.07935162094763092,-0.001804858948759265
0.07940149625935163,0.01156261170227355
0.07945137157107232,0.016209469283314484
0.07950124688279302,0.0016240782644052522
0.07955112219451371,0.017672056277432086
0.07960099750623441,-0.0015232608694169102
0.07965087281795512,0.012984174224041647
0.07970074812967581,-0.004026902412998292
0.07975062344139651,0.015687135366660124
0.0798004987531172,-0.007175993782058446
0.0798503740648379,0.03699290353348559
0.07990024937655861,-0.017842547158183203
0.0799501246882793,-0.004784383757856419
0.08,0.027035084161130006
0.0800498753117207,0.03542505028734994
0.0800997506234414,0.02438855652983988
0.08014962593516209,0.016250416071072128
0.0801995012468828,0.01595552135296178
0.0802493765586035,-0.014275295126679955
0.08029925187032419,0.0028158009415451754
0.08034912718204489,0.003929138992297235
0.08039900249376558,0.026571151984475024
0.08044887780548629,0.00797387518948799
0.08049875311720699,0.017911985235071055
0.08054862842892768,0.016424351667999878
0.08059850374064838,-0.016498814424705962
0.08064837905236907,0.000746289254722937
0.08069825436408977,0.018253166532868487
0.08074812967581048,0.028541042485351338
0.08079800498753117,0.004470391697467521
0.08084788029925187,-0.0004743327911007134
0.08089775561097257,0.015541833777293632
0.08094763092269326,-0.0015776174186753864
0.08099750623441397,-0.01867811157086481
0.08104738154613467,0.008896746451571836
0.08109725685785536,0.004363895980976482
0.08114713216957606,-0.02750688627435608
0.08119700748129675,-0.004675838370247994
0.08124688279301745,-0.009358382855686378
0.08129675810473816,-0.0014579601456850833
0.08134663341645886,0.023856811749877218
0.08139650872817955,-0.012221446136441813
0.08144638403990025,0.004426917787181174
0.08149625935162094,0.01712810385638094
0.08154613466334165,-0.004668349107575924
0.08159600997506235,0.006259554841526761
0.08164588528678304,0.015261762263901725
0.08169576059850374,-0.02434684943839858
0.08174563591022443,-0.009116239380732534
0.08179551122194513,-0.004861228787174928
0.08184538653366584,-0.0212189764499605
0.08189526184538654,-0.01174965767680532
0.08194513715710723,-0.0005988792456911602
0.08199501246882793,0.029223408135394355
0.08204488778054862,0.0110421252529448
0.08209476309226933,0.004327113512605908
0.08214463840399003,-0.004606441094972584
0.08219451371571072,0.020873129770951782
0.08224438902743142,-0.00030051555138971286
0.08229426433915212,-0.0022682652690388027
0.08234413965087282,-0.015119685725533318
0.08239401496259352,0.003122761267277432
0.08244389027431422,-0.024184519017868424
0.08249376558603491,-2.460798215250977e-06
0.08254364089775561,-0.0419488388413365
0.0825935162094763,-0.0166043399784306
0.08264339152119701,0.00176041376118527
0.08269326683291771,-0.020516534160721203
0.0827431421446384,-0.003277216450180728
0.0827930174563591,-0.020397010100016846
0.0828428927680798,0.015153364019726273
0.0828927680798005,-0.02631063218612684
0.0829426433915212,-0.008899468093208662
0.0829925187032419,-0.006951754887102309
0.08304239401496259,-0.01485827804655095
0.08309226932668329,-0.021364655577774304
0.08314214463840398,-0.021197663799801827
0.0831920199501247,-0.005835274343288325
0.08324189526184539,-0.025244952731440146
0.08329177057356608,-0.005516336372221148
0.08334164588528678,-0.020355087046922057
0.08339152119700748,-0.004206920602906766
0.08344139650872819,-0.0140442527622985
0.08349127182044888,-0.027943697319037723
0.08354114713216958,0.006724535443146738
0.08359102244389027,0.002629727180894225
0.08364089775561097,-0.04875467632983187
0.08369077306733166,-0.016617082053872436
0.08374064837905237,-0.0063376650628884125
0.08379052369077307,0.021487495290022175
0.08384039900249377,0.004999281813021896
0.08389027431421446,-0.034308120495770186
0.08394014962593516,-0.021029083280032675
0.08399002493765587,-0.008949525107876121
0.08403990024937656,-0.031264815534243456
0.08408977556109726,0.023446749510112493
0.08413965087281795,-0.012159378077429315
0.08418952618453865,-0.00790815657308393
0.08423940149625936,0.003524355814560745
0.08428927680798005,-0.017428545609603975
0.08433915211970075,-0.02469806613970068
0.08438902743142145,-0.013952471678225484
0.08443890274314214,-0.04930189297201717
0.08448877805486284,-0.04262874945174011
0.08453865336658355,-0.028836933314183702
0.08458852867830424,0.013577411957644493
0.08463840399002494,0.02024445415669121
0.08468827930174563,-0.0034132284597249637
0.08473815461346633,-0.012111361268556307
0.08478802992518704,-0.016290985421467466
0.08483790523690773,-0.0168490230572508
0.08488778054862843,-0.0057948317881608685
0.08493765586034913,-0.012070613531007971
0.08498753117206982,-0.02998610025473841
0.08503740648379052,0.01234328907174995
0.08508728179551123,-0.018724752755170958
0.08513715710723192,-0.0089001310542522
0.08518703241895262,-0.022712015738422194
0.08523690773067331,-0.0035146388490221794
0.08528678304239401,-0.028810454310588388
0.08533665835411472,-0.014743288740252835
0.08538653366583542,-0.017851253414659637
0.08543640897755611,-0.01066530201634975
0.0854862842892768,0.014306478491369054
0.0855361596009975,-0.0022994175672007913
0.0855860349127182,-0.0039039183864030477
0.08563591022443891,-0.013997794521908028
0.0856857855361596,0.022877966419948857
0.0857356608478803,-0.0029017697541951597
0.085785536159601,-0.02502519392335465
0.08583541147132169,-0.0025037586601640537
0.0858852867830424,-0.038476404758975145
0.0859351620947631,-0.007983701772245
0.08598503740648379,-0.03136785304275218
0.08603491271820449,7.27939472528142e-05
0.08608478802992518,0.004264602704329729
0.08613466334164588,-0.010952799025422377
0.08618453865336659,-0.04040905449767612
0.08623441396508728,0.00617490907818221
0.08628428927680798,-0.021747315370139325
0.08633416458852868,-0.009800483369838187
0.08638403990024937,-0.013584268103651036
0.08643391521197008,-0.01610564424018517
0.08648379052369078,-0.03217103024718948
0.08653366583541147,-0.025769688660168412
0.08658354114713217,-0.025491535111653457
0.08663341645885286,-0.03418864993406024
0.08668329177057357,0.0025874551409180453
0.08673316708229427,-0.012293626232503308
0.08678304239401496,0.001325630131809346
0.08683291770573566,-0.0027558196805330436
0.08688279301745636,-0.0037127481599561153
0.08693266832917705,0.0005177746130229938
0.08698254364089776,-0.002102973340635368
0.08703241895261846,0.0008770524648649067
0.08708229426433915,0.018600426106182004
0.08713216957605985,-0.02049970533038186
0.08718204488778054,-0.04300214215330392
0.08723192019950125,-0.04059246016764517
0.08728179551122195,-0.040860341396582484
0.08733167082294264,-0.017237469488652523
0.08738154613466334,0.009051332315422355
0.08743142144638404,-0.012343033073745676
0.08748129675810473,0.012871337232270267
0.08753117206982544,-0.014085320099681092
0.08758104738154614,0.0006735559298589435
0.08763092269326683,-0.009902780963574364
0.08768079800498753,-0.017777113880988186
0.08773067331670822,-0.009691802976867774
0.08778054862842893,0.0004103124878269814
0.08783042394014963,-0.010524847341652025
0.08788029925187033,0.008252340587825433
0.08793017456359102,-0.022042254887502798
0.08798004987531172,-0.019369367914660644
0.08802992518703241,-0.010025940817842612
0.08807980049875312,-0.0016007219744925776
0.08812967581047382,-0.006410761789485103
0.08817955112219451,-0.01447383534491371
0.08822942643391521,-0.002957647172559944
0.0882793017456359,-0.009578791609240326
0.08832917705735661,0.006169870977671291
0.08837905236907731,-0.0014393147321977702
0.088428927680798,0.0023916027047924514
0.0884788029925187,-0.019068329294092426
0.0885286783042394,0.027202172394957234
0.0885785536159601,-0.0019501164250359643
0.0886284289276808,-0.01324203531077239
0.0886783042394015,0.0073180205177234515
0.0887281795511222,-0.003148997930332474
0.08877805486284289,-0.0016613296008920128
0.08882793017456359,0.01920352654391355
0.0888778054862843,-0.02506912591633144
0.08892768079800499,-0.019591714521186857
0.08897755610972569,-0.003441239172838553
0.08902743142144638,-0.007228541976866949
0.08907730673316708,0.00178714307218827
0.08912718204488779,-0.00696037981905414
0.08917705735660848,0.009429002602661824
0.08922693266832918,-0.005282358986373384
0.08927680798004987,7.365800408081782e-05
0.08932668329177057,-0.010794778512785317
0.08937655860349127,-0.026125754816837692
0.08942643391521198,-0.006242691864895139
0.08947630922693267,0.005915064820711798
0.08952618453865337,-0.004451068111805073
0.08957605985037406,0.015196778282151527
0.08962593516209476,0.01041289278460323
0.08967581047381547,0.013253120979809581
0.08972568578553616,-0.009536809602505698
0.08977556109725686,0.0016081836072304114
0.08982543640897755,-0.014486958127922656
0.08987531172069825,0.007240126151127399
0.08992518703241895,0.0005344369492412447
0.08997506234413966,0.002664333642561875
0.09002493765586035,8.548478409116118e-05
0.09007481296758105,0.00030480345806906204
0.09012468827930174,-0.017566798524458346
0.09017456359102244,0.017833827206947827
0.09022443890274315,-0.01103011602303512
0.09027431421446384,0.030102646444355452
0.09032418952618454,-0.0013627271431511725
0.09037406483790524,-0.0005237958809140297
0.09042394014962593,0.0026672424942975493
0.09047381546134663,0.013901831443803749
0.09052369077306734,0.03828813536065481
0.09057356608478803,-0.01238668597146511
0.09062344139650873,-0.010876021093492866
0.09067331670822942,0.019136288174822824
0.09072319201995012,-0.018246031250540706
0.09077306733167083,-0.009187480918168334
0.09082294264339152,-0.006379971296428505
0.09087281795511222,0.046270737190030435
0.09092269326683292,0.01703611511537504
0.09097256857855361,0.01814183553097537
0.09102244389027432,-0.0004323167895770169
0.09107231920199502,0.017823095215163728
0.09112219451371571,0.019915872239287917
0.09117206982543641,0.0013652055787684563
0.0912219451371571,-0.012822958617512186
0.0912718204488778,0.030781756796137736
0.09132169576059851,-0.02489274695130964
0.0913715710723192,-0.008604734451335699
0.0914214463840399,0.026347798486246715
0.0914713216957606,0.028362927757232773
0.09152119700748129,0.001683530619304532
0.091571072319202,0.028223370304517617
0.0916209476309227,0.01569187012088962
0.09167082294264339,0.016745752314198007
0.09172069825436409,0.03819740832299996
0.09177057356608478,0.010658729191594742
0.09182044887780548,0.0035807310110776425
0.09187032418952619,0.00915235571412839
0.09192019950124689,0.027727096828146447
0.09197007481296758,0.03294437476586251
0.09201995012468828,0.02856370330821726
0.09206982543640897,0.017921419773622615
0.09211970074812968,0.03634355777701494
0.09216957605985038,-0.014222088619804903
0.09221945137157107,0.029220291992935667
0.09226932668329177,0.03930415533184843
0.09231920199501246,0.02836077144852707
0.09236907730673316,0.02687428151996161
0.09241895261845387,0.0033024238433605885
0.09246882793017457,0.026292189251645223
0.09251870324189526,0.02428288125445009
0.09256857855361596,0.029682349790045855
0.09261845386533665,0.022856205436889553
0.09266832917705736,0.017145032300495546
0.09271820448877806,0.018661993989361705
0.09276807980049875,0.02668347285462875
0.09281795511221945,0.024287729552119434
0.09286783042394015,0.01667096778413227
0.09291770573566084,0.02036450856838092
0.09296758104738155,0.049707470794566735
0.09301745635910225,0.015212495453652383
0.09306733167082294,0.014309435421275262
0.09311720698254364,0.056248357526684535
0.09316708229426433,0.0465991451278423
0.09321695760598504,0.025434364082690838
0.09326683291770574,0.0579877210503377
0.09331670822942643,-0.0003794873697908416
0.09336658354114713,0.0006140811464829393
0.09341645885286783,0.0021695126573183093
0.09346633416458854,0.02539217390643005
0.09351620947630923,0.04195746075146777
0.09356608478802993,0.013855398964407916
0.09361596009975062,0.023471763869498022
0.09366583541147132,0.009345466682189236
0.09371571072319201,0.026865308609506776
0.09376558603491272,0.03222661679732643
0.09381546134663342,0.022098381499096743
0.09386533665835411,0.03766464885517169
0.09391521197007481,-0.0034610057501758273
0.0939650872817955,0.05094735387496793
0.09401496259351622,0.04743435832125528
0.09406483790523691,0.009454578447733564
0.09411471321695761,0.03875062235717654
0.0941645885286783,0.06654175147804495
0.094214463840399,0.035580069601031133
0.0942643391521197,0.036512541074098334
0.0943142144638404,-0.022784446020378234
0.0943640897755611,0.039349569557542756
0.0944139650872818,0.03995036794932906
0.09446384039900249,0.009578103695199933
0.09451371571072319,0.011449592791787604
0.0945635910224439,0.01443284364219965
0.09461346633416459,0.020680477008434638
0.09466334164588529,0.004306952462876424
0.09471321695760598,0.013100222064276933
0.09476309226932668,0.054777441990669605
0.09481296758104737,0.026735727868013606
0.09486284289276808,0.04226636240443812
0.09491271820448878,0.033278214830361155
0.09496259351620948,0.02222272915778862
0.09501246882793017,0.01083191257123721
0.09506234413965087,0.006919582770790356
0.09511221945137158,0.015841349907536766
0.09516209476309227,0.007167410314254993
0.09521197007481297,0.0021651759149369024
0.09526184538653366,0.02784986439323087
0.09531172069825436,0.04457790989944175
0.09536159600997507,0.03354371926342987
0.09541147132169576,0.032143768000633066
0.09546134663341646,0.008780232945048753
0.09551122194513716,0.011291804688264274
0.09556109725685785,0.040323941261696084
0.09561097256857855,0.05342346308432011
0.09566084788029926,0.02830509982160083
0.09571072319201995,0.04507288508846807
0.09576059850374065,0.020717396674493026
0.09581047381546134,0.02386252058859126
0.09586034912718204,0.03542223552858568
0.09591022443890275,0.032925006449984036
0.09596009975062345,0.01768144408650084
0.09600997506234414,0.029706779167712763
0.09605985037406484,0.021312458619802178
0.09610972568578553,0.019895655095706153
0.09615960099750623,0.031061382431025988
0.09620947630922694,0.03554495516903299
0.09625935162094763,0.019640228940689747
0.09630922693266833,0.04349930627950244
0.09635910224438902,-0.003829427983302009
0.09640897755610972,0.026479110155763024
0.09645885286783043,0.05225162280279051
0.09650872817955113,0.02405382250342556
0.09655860349127182,0.026672034829185346
0.09660847880299252,0.053667960450657345
0.09665835411471321,0.023359979314421724
0.09670822942643391,0.047963236957917654
0.09675810473815462,0.019231054269206925
0.09680798004987531,0.018781357147933365
0.09685785536159601,0.01639487747934923
0.0969077306733167,0.01923238372842658
0.0969576059850374,0.03502279742662524
0.09700748129675811,0.016955744196818223
0.0970573566084788,0.028026604576297274
0.0971072319201995,0.02279356975786294
0.0971571072319202,0.017353798242632
0.0972069825436409,0.010990620555482833
0.09725685785536159,0.014682419167415275
0.0973067331670823,0.013452879102305582
0.097356608478803,-0.0026084611658962233
0.09740648379052369,0.02853971699366789
0.09745635910224439,0.035739077029637564
0.09750623441396508,0.036675401337200195
0.09755610972568579,0.01819546785858344
0.09760598503740649,0.025567786014031868
0.09765586034912718,0.038264497103811024
0.09770573566084788,0.033870786685435736
0.09775561097256857,0.002057838391209141
0.09780548628428928,0.0029842094692511117
0.09785536159600998,0.02468731955854031
0.09790523690773068,0.042446179927159766
0.09795511221945137,0.026041134766436335
0.09800498753117207,0.023135618263237897
0.09805486284289276,0.013118176548011095
0.09810473815461347,0.025451368159857116
0.09815461346633417,0.0033470130224767265
0.09820448877805486,0.039398190967944044
0.09825436408977556,0.030802404754842215
0.09830423940149625,0.034232302818053985
0.09835411471321696,0.010331856048201755
0.09840399002493766,-0.012898509977955483
0.09845386533665836,0.011230005738540922
0.09850374064837905,0.028962597971483775
0.09855361596009975,0.012387338685682304
0.09860349127182044,0.01940978364619645
0.09865336658354115,0.006138379116468685
0.09870324189526185,0.005126083189996482
0.09875311720698254,0.03207952393025308
0.09880299251870324,0.023032671765577467
0.09885286783042393,-0.006040772909862387
0.09890274314214464,0.03915256738958416
0.09895261845386534,0.02703847475368815
0.09900249376558604,0.013377373407092337
0.09905236907730673,0.009804667934492169
0.09910224438902743,0.01725984691444118
0.09915211970074812,0.026503655242453503
0.09920199501246883,0.00590652601278736
0.09925187032418953,0.015616944799772622
0.09930174563591022,-0.005960259983277287
0.09935162094763092,0.034257401081848736
0.09940149625935162,0.0049346768764210215
0.09945137157107233,0.01948113654137891
0.09950124688279302,0.006972558255272581
0.09955112219451372,0.033100447713374274
0.09960099750623441,0.011667259610523145
0.09965087281795511,0.006055542467856916
0.0997007481296758,-0.01810938524197367
0.09975062344139651,-0.021638426545971617
0.09980049875311721,0.01365239991199387
0.0998503740648379,0.018105867288610793
0.0999002493765586,0.004823541691377524
0.0999501246882793,0.020687078807432084
0.1,-0.021597629892175937
0.1000498753117207,0.02617519263876065
0.1000997506234414,-0.009670136285587248
0.10014962593516209,-0.009312477827208083
0.10019950124688279,0.005081707998695967
0.1002493765586035,0.005410206191314836
0.1002992518703242,0.003116021160516784
0.10034912718204489,-0.004859137974372363
0.10039900249376559,0.005470724783353731
0.10044887780548628,0.010500664879233852
0.10049875311720698,0.00022501063074598874
0.10054862842892769,0.033948005624200736
0.10059850374064838,-0.011753468141687137
0.10064837905236908,-0.010036891855563522
0.10069825436408977,0.02947378602971251
0.10074812967581047,-0.008101484409770538
0.10079800498753118,-0.012624046393042702
0.10084788029925187,0.0018838082082030944
0.10089775561097257,0.006278201666533107
0.10094763092269327,-0.013121615833292374
0.10099750623441396,0.01690265009092371
0.10104738154613466,-0.00018240940674351465
0.10109725685785537,0.017435244560536883
0.10114713216957606,-0.019660446576840785
0.10119700748129676,-0.022479837635769054
0.10124688279301745,0.03538642111403315
0.10129675810473815,-0.018812730327352943
0.10134663341645886,0.004573607625194288
0.10139650872817955,0.002620946535372313
0.10144638403990025,0.015407173247940695
0.10149625935162095,0.012347460718624389
0.10154613466334164,-0.018119761819942154
0.10159600997506234,0.0031471036611308177
0.10164588528678305,0.023373576146554546
0.10169576059850374,-0.0042808568878864445
0.10174563591022444,-0.0038946091890868914
0.10179551122194513,0.001907401670185862
0.10184538653366583,0.022711305693247943
0.10189526184538654,-0.015042303793790814
0.10194513715710724,-0.005228059036921327
0.10199501246882793,0.005458364593621791
0.10204488778054863,0.0022519946365485433
0.10209476309226932,-0.004243733232711644
0.10214463840399003,0.018770221155801504
0.10219451371571073,-0.022589758700741498
0.10224438902743142,-0.033471630005068434
0.10229426433915212,-0.017145158888847867
0.10234413965087281,-0.02305970348289734
0.10239401496259351,0.007613212082161918
0.10244389027431422,-0.02701740355341617
0.10249376558603492,1.956787301685744e-05
0.10254364089775561,0.0016283492181762647
0.10259351620947631,0.007553264195005882
0.102643391521197,-0.04146915197002549
0.10269326683291771,-0.020199430106963293
0.10274314214463841,0.009049776221822892
0.1027930174563591,-0.003131424199349051
0.1028428927680798,-0.030366196643804202
0.1028927680798005,0.018545055886569156
0.10294264339152119,-0.0022656293438949393
0.1029925187032419,-0.001005476293502624
0.1030423940149626,-0.021244326345953905
0.10309226932668329,0.005265028573082904
0.10314214463840399,0.004461193353369449
0.10319201995012468,-0.04139591529300293
0.10324189526184539,-0.008210622504535888
0.10329177057356609,-0.04372312645334153
0.10334164588528678,-0.02431934540086135
0.10339152119700748,-0.006063454828205734
0.10344139650872818,-0.019560767877612836
0.10349127182044887,-0.003667645143536574
0.10354114713216958,-0.0027540475780352203
0.10359102244389028,0.009879316822390394
0.10364089775561097,-0.0051701243070261995
0.10369077306733167,0.000633460275566029
0.10374064837905236,0.008135818267382522
0.10379052369077307,0.0031176202328728024
0.10384039900249377,0.0035758329501091174
0.10389027431421446,-0.029012437308616155
0.10394014962593516,-0.008944264839639032
0.10399002493765586,-0.015728766632950072
0.10403990024937655,-0.008921939543234975
0.10408977556109726,0.01590920104005639
0.10413965087281796,0.002208753583868548
0.10418952618453865,-0.026730784279530434
0.10423940149625935,0.01681551040980394
0.10428927680798004,-0.008867643515889118
0.10433915211970075,-0.0021764376968786588
0.10438902743142145,-0.020743922784668644
0.10443890274314215,0.012340492168418931
0.10448877805486284,0.00034007374484039746
0.10453865336658354,-0.03111815779620042
0.10458852867830425,0.023371393655765356
0.10463840399002494,-0.012954228319358586
0.10468827930174564,-0.029548601669907214
0.10473815461346633,-0.009395882167420029
0.10478802992518703,-0.02158135281140207
0.10483790523690772,-0.019377620047320524
0.10488778054862843,-0.034114528010187155
0.10493765586034913,-0.006763056487454091
0.10498753117206983,-0.008906975773814612
0.10503740648379052,-0.03307103924053556
0.10508728179551122,-0.00319850108564217
0.10513715710723193,-0.0013516837280905837
0.10518703241895262,-0.008062952326051023
0.10523690773067332,-0.011718472408136175
0.10528678304239401,-0.025085381371619517
0.10533665835411471,-0.020936081753087477
0.1053865336658354,-0.002381876915123777
0.10543640897755611,-0.024061956004385588
0.10548628428927681,-0.02170575885495359
0.1055361596009975,-0.029539937972015748
0.1055860349127182,-0.028435591100547088
0.1056359102244389,0.03058855190031008
0.10568578553615961,-0.03287524473347419
0.1057356608478803,-0.04935544830792225
0.105785536159601,-0.011027604851584135
0.1058354114713217,-0.01991280509868225
0.10588528678304239,-0.0004970904176929795
0.10593516209476309,0.0037073076349900137
0.1059850374064838,-0.027363305215189333
0.10603491271820449,-0.013345444054892514
0.10608478802992519,0.009609942589244452
0.10613466334164588,-0.005896551072431381
0.10618453865336658,-0.019575558757760174
0.10623441396508729,-0.005895461327108047
0.10628428927680798,-0.03125398254241659
0.10633416458852868,-0.016373582495994896
0.10638403990024937,-0.005011290576603711
0.10643391521197007,-0.008460070775352557
0.10648379052369077,0.0015457521220829593
0.10653366583541148,-0.0017919224936097256
0.10658354114713217,-0.026152286574721087
0.10663341645885287,-0.013728123421196326
0.10668329177057356,-0.02054140510244322
0.10673316708229426,-0.022677368574966307
0.10678304239401497,-0.01957863053033372
0.10683291770573566,0.005124282369063366
0.10688279301745636,-0.002322599579379867
0.10693266832917706,-0.009003132321731128
0.10698254364089775,-0.0073018744949509
0.10703241895261846,-0.012546171585226074
0.10708229426433916,-0.001621365951084825
0.10713216957605985,-0.022433961579222707
0.10718204488778055,-0.005146327278252033
0.10723192019950124,0.006959633007950937
0.10728179551122194,0.016854624918179385
0.10733167082294265,0.022621671331586393
0.10738154613466334,0.022406892108508866
0.10743142144638404,0.001953789684274636
0.10748129675810474,-0.010049082409447112
0.10753117206982543,0.021111271590223298
0.10758104738154614,-0.000980966752292243
0.10763092269326684,0.006013321157549762
0.10768079800498753,-0.00867934019781021
0.10773067331670823,0.002398943541060964
0.10778054862842892,0.004808915279251941
0.10783042394014962,-0.0011065643824761172
0.10788029925187033,-0.0396088244027778
0.10793017456359102,-0.005179931866895733
0.10798004987531172,0.006104928697135517
0.10802992518703242,-0.0257457454704766
0.10807980049875311,-0.001224111231772405
0.10812967581047382,0.006465006160615362
0.10817955112219452,0.004724759675425093
0.10822942643391521,0.022472168152397887
0.10827930174563591,0.01807710456610051
0.1083291770573566,-0.0038845933952899245
0.1083790523690773,0.011337647646723827
0.10842892768079801,0.013271131415218445
0.1084788029925187,-0.020277103224135288
0.1085286783042394,-0.015500370414756352
0.1085785536159601,-0.007210250573820246
0.10862842892768079,-0.0036429911041001095
0.1086783042394015,0.009316774190485265
0.1087281795511222,0.012983347143278834
0.1087780548628429,-0.008373437512976992
0.10882793017456359,-0.006624658591887299
0.10887780548628428,0.015301290316888308
0.108927680798005,-0.022111692635066443
0.10897755610972569,-0.0006651763049457318
0.10902743142144639,-0.007228435361057497
0.10907730673316708,0.004804038385482351
0.10912718204488778,-0.0075257183381006315
0.10917705735660847,0.011637571831887315
0.10922693266832918,0.014843645689893187
0.10927680798004988,-0.010316458070291246
0.10932668329177057,0.01893420289555351
0.10937655860349127,0.003260488753618094
0.10942643391521197,-0.0007138953411927537
0.10947630922693267,0.016946557754565435
0.10952618453865337,0.007543252431138181
0.10957605985037407,0.017725294442016485
0.10962593516209476,-0.020013083374815402
0.10967581047381546,-0.005722719247887179
0.10972568578553615,0.01811623358976373
0.10977556109725686,0.023608096398417728
0.10982543640897756,0.017164009998597587
0.10987531172069825,-0.00470489358583938
0.10992518703241895,-0.02675065448748232
0.10997506234413965,0.020382995030861793
0.11002493765586036,-0.01615918716585564
0.11007481296758105,0.005902017610740446
0.11012468827930175,0.005187032369949624
0.11017456359102244,0.004071386839244789
0.11022443890274314,0.02144260487006653
0.11027431421446383,0.0015227622968269957
0.11032418952618454,0.015118868665487107
0.11037406483790524,0.010050784198775765
0.11042394014962593,0.014673581600885808
0.11047381546134663,-0.0008333923971249827
0.11052369077306733,0.0054178175835180465
0.11057356608478804,0.0034304850766432755
0.11062344139650873,0.059873287144448936
0.11067331670822943,0.015923383151094157
0.11072319201995012,0.021237080313662202
0.11077306733167082,-0.007911679209299137
0.11082294264339151,0.0034161437676461306
0.11087281795511222,-0.014430175744510755
0.11092269326683292,0.04167995695326342
0.11097256857855362,0.03880684640658452
0.11102244389027431,-0.011325066302016865
0.111072319201995,0.01245145181227139
0.11112219451371572,0.007902508232413404
0.11117206982543641,0.028266396289894316
0.11122194513715711,0.012441692407986486
0.1112718204488778,0.01690060179155828
0.1113216957605985,0.012629714665367444
0.11137157107231921,0.013240393707013449
0.1114214463840399,-0.006966706155774119
0.1114713216957606,0.020542134000546938
0.1115211970074813,0.006727042010342119
0.11157107231920199,0.011148503254956539
0.11162094763092269,0.0030541668384315764
0.1116708229426434,0.0009716115718566669
0.11172069825436409,0.009116784730881006
0.11177057356608479,-0.006256846609947988
0.11182044887780548,0.007143691203838053
0.11187032418952618,-0.022875559770001306
0.11192019950124689,0.018934171296050892
0.11197007481296758,0.03951121219499927
0.11201995012468828,0.03469110670046495
0.11206982543640898,0.029496152591085303
0.11211970074812967,0.01157930731751146
0.11216957605985037,0.05825322550900541
0.11221945137157108,-0.006087206792455453
0.11226932668329177,0.02078507176345837
0.11231920199501247,0.011269813580402717
0.11236907730673316,0.025988886090317444
0.11241895261845386,0.00504466949908355
0.11246882793017457,0.053330871426340395
0.11251870324189527,0.03843403332781169
0.11256857855361596,0.01046226923712888
0.11261845386533666,0.010841266837390257
0.11266832917705735,0.027059642541094654
0.11271820448877805,0.009652670396238412
0.11276807980049876,0.012993148425600618
0.11281795511221945,0.01751120243483844
0.11286783042394015,0.03988383471787609
0.11291770573566084,0.018480479498444335
0.11296758104738154,0.049042130526726735
0.11301745635910225,0.03484468498408973
0.11306733167082295,0.03758291590901378
0.11311720698254364,0.020435509397099115
0.11316708229426434,0.007811198972711601
0.11321695760598503,0.011156749778419362
0.11326683291770574,0.04362199193066581
0.11331670822942644,0.004554162307099617
0.11336658354114713,0.014243997167910671
0.11341645885286783,0.023083530846065396
0.11346633416458853,0.034234508121372825
0.11351620947630922,0.023427156942933316
0.11356608478802993,0.032526542240933064
0.11361596009975063,0.03875732236094988
0.11366583541147132,0.03493143264488702
0.11371571072319202,0.027418671381109212
0.11376558603491271,0.027894524680036403
0.11381546134663342,0.023924006204048026
0.11386533665835412,0.049788544522386846
0.11391521197007481,0.042806221495525834
0.11396508728179551,0.018474641907224233
0.1140149625935162,0.014461542031136525
0.1140648379052369,0.014591394672853844
0.11411471321695761,0.04379298425239765
0.1141645885286783,0.0432207049555268
0.114214463840399,0.00016146122371772306
0.1142643391521197,0.02462565987467276
0.1143142144638404,0.016601846505781722
0.1143640897755611,0.03689868082689155
0.1144139650872818,0.04717217860444792
0.1144638403990025,0.015508809951248365
0.11451371571072319,0.020495834191764935
0.11456359102244389,0.02538456172753192
0.11461346633416458,0.01832225042010152
0.11466334164588529,0.024294712439941756
0.11471321695760599,0.02965178304287706
0.11476309226932668,0.011941700820455151
0.11481296758104738,0.05460711063499422
0.11486284289276807,0.022153817774269856
0.11491271820448878,0.010604157964856989
0.11496259351620948,0.016119562319733896
0.11501246882793018,0.027067695055288495
0.11506234413965087,0.0152407467192216
0.11511221945137157,0.023011951659747593
0.11516209476309226,0.05367922007824136
0.11521197007481297,0.028233284453647103
0.11526184538653367,0.04354570694768354
0.11531172069825436,0.030274294685931794
0.11536159600997506,0.0639728639714195
0.11541147132169575,0.012616243759198436
0.11546134663341646,0.02856472086897334
0.11551122194513716,0.0438802598747641
0.11556109725685786,0.00249086628845201
0.11561097256857855,0.018803400067820362
0.11566084788029925,0.042679914916938136
0.11571072319201996,0.04618916825051221
0.11576059850374065,0.02942969959806135
0.11581047381546135,0.029957016733375454
0.11586034912718204,0.010856535088891221
0.11591022443890274,0.020909378507642358
0.11596009975062344,0.02148492204198967
0.11600997506234415,0.016147617519295936
0.11605985037406484,0.04352327874087552
0.11610972568578554,0.02456170818901053
0.11615960099750623,0.02581049900755523
0.11620947630922693,0.03720792234916916
0.11625935162094764,0.020783785448016876
0.11630922693266833,0.026647090384952957
0.11635910224438903,0.02243933428957214
0.11640897755610972,0.024135154902869892
0.11645885286783042,0.048528593103354375
0.11650872817955112,0.0167447532141702
0.11655860349127183,0.02575314172475702
0.11660847880299252,0.03690874852153823
0.11665835411471322,0.01198469659621457
0.11670822942643391,0.04082540492767203
0.11675810473815461,0.04572414970253291
0.11680798004987532,0.022326054389018368
0.11685785536159601,0.03776347958526708
0.11690773067331671,0.025587222596597695
0.1169576059850374,0.025325911489684782
0.1170074812967581,0.015448388936292991
0.1170573566084788,0.01985416212982336
0.1171072319201995,0.008514779502704403
0.1171571072319202,0.029397960925670576
0.1172069825436409,0.020144409219292204
0.1172568578553616,0.03320548181292276
0.11730673316708229,0.026777790460571757
0.117356608478803,0.011916107696550592
0.1174064837905237,0.046407854866676014
0.11745635910224439,0.02741949672520763
0.11750623441396509,0.017159645963422256
0.11755610972568578,0.006742037343149064
0.11760598503740648,0.01586382189348704
0.11765586034912719,0.010384431232243679
0.11770573566084788,0.037433479472393984
0.11775561097256858,0.03338291246911999
0.11780548628428927,0.039721666943489845
0.11785536159600997,0.041269848003029096
0.11790523690773068,0.05676970433498755
0.11795511221945137,0.016913256813477495
0.11800498753117207,0.017478108433420663
0.11805486284289277,0.03685238926618602
0.11810473815461346,0.005893049625743385
0.11815461346633417,-0.003683798306196584
0.11820448877805487,0.046211062700137105
0.11825436408977556,0.026774215129578994
0.11830423940149626,0.020970320850772564
0.11835411471321695,0.0015257097631159837
0.11840399002493765,0.03174971479190717
0.11845386533665836,0.00892647971736486
0.11850374064837906,0.03391577058156606
0.11855361596009975,0.024359469219975755
0.11860349127182045,0.012078843677988792
0.11865336658354114,0.01126274051599215
0.11870324189526185,0.019195445505276392
0.11875311720698255,0.028783599048622675
0.11880299251870324,0.02011448999251646
0.11885286783042394,0.014038348673387414
0.11890274314214463,0.012772657369056296
0.11895261845386533,0.033776159249943635
0.11900249376558604,0.009552722581298344
0.11905236907730674,0.028818289008210023
0.11910224438902743,0.014994114224479672
0.11915211970074813,0.014574024009971633
0.11920199501246882,0.044202362270084505
0.11925187032418953,0.007650900122429718
0.11930174563591023,0.012321348689454486
0.11935162094763092,0.027712714841154125
0.11940149625935162,0.02739491306647636
0.11945137157107232,-0.0023716642384186554
0.11950124688279301,0.023806223695535613
0.11955112219451372,0.005143093243716033
0.11960099750623442,0.03955692182389394
0.11965087281795511,-0.01881100331030149
0.11970074812967581,0.023156502972771553
0.1197506234413965,0.014202897943629564
0.11980049875311721,0.013035084686110057
0.11985037406483791,0.0057319796116376545
0.1199002493765586,-0.00759071139979038
0.1199501246882793,0.011740234882647726
0.12,-0.02515455674702924
0.1200498753117207,0.017899926950045615
0.1200997506234414,-0.0028285471272844007
0.1201496259351621,-0.006769400756608488
0.12019950124688279,0.021309210161041564
0.12024937655860349,0.007224106743573072
0.12029925187032418,0.009274171609685612
0.1203491271820449,-0.005539232775040974
0.12039900249376559,0.00011331840597225435
0.12044887780548628,-0.013577101909392812
0.12049875311720698,0.02444266262576985
0.12054862842892768,0.02379861742349215
0.12059850374064839,-0.024221373113164465
0.12064837905236908,0.04039674722539121
0.12069825436408978,0.005692733614819282
0.12074812967581047,0.023872741104446236
0.12079800498753117,-0.0033872308781413
0.12084788029925186,0.0183371837910361
0.12089775561097257,0.001522939983626466
0.12094763092269327,-0.0006476317628965091
0.12099750623441397,0.0041869305516696355
0.12104738154613466,-0.031022291238828933
0.12109725685785536,-0.023783329630803485
0.12114713216957607,0.0034774223094589914
0.12119700748129676,0.008520713611837937
0.12124688279301746,-0.001253757408983115
0.12129675810473815,0.004606612485789412
0.12134663341645885,-0.0007101254416343231
0.12139650872817954,-0.003210111031806678
0.12144638403990025,0.00801454293111921
0.12149625935162095,0.012202943153700725
0.12154613466334165,0.0030296573733027228
0.12159600997506234,0.005004885682904353
0.12164588528678304,0.009641797143144702
0.12169576059850375,-0.00935335370386292
0.12174563591022444,-0.018676026520287315
0.12179551122194514,-0.003411387207295181
0.12184538653366583,0.021997198498411384
0.12189526184538653,-0.02139188151646524
0.12194513715710723,-0.008391812482353475
0.12199501246882793,0.0032444739122541016
0.12204488778054863,-0.04897256259404611
0.12209476309226933,-0.011174414937150108
0.12214463840399002,-0.03571628159022167
0.12219451371571072,-0.0003684973262166411
0.12224438902743143,-0.013978675985000293
0.12229426433915212,-0.026776432763069256
0.12234413965087282,-0.032456372454346925
0.12239401496259351,-0.020744490449773632
0.12244389027431421,0.0075032541617649755
0.12249376558603492,-0.03167270901759598
0.12254364089775562,-0.02651342738085614
0.12259351620947631,0.02694323136129713
0.122643391521197,-0.00720605684827528
0.1226932668329177,0.0043166294930332815
0.1227431421446384,-0.0045987918725326985
0.12279301745635911,-0.00815027851214591
0.1228428927680798,-0.02584568313245741
0.1228927680798005,-0.0346476489719038
0.1229426433915212,0.0017312815886085832
0.12299251870324189,-0.01313897348620109
0.1230423940149626,-0.030790859856745494
0.1230922693266833,-0.0011172634547424853
0.12314214463840399,0.01667830162854632
0.12319201995012469,-0.020047812755138415
0.12324189526184538,0.009742936398688786
0.12329177057356608,-0.02257537404420938
0.12334164588528679,0.010243019346949689
0.12339152119700748,-0.029751192192006906
0.12344139650872818,-0.005350223072543145
0.12349127182044888,-0.015204126139346536
0.12354114713216957,-0.016750526285292403
0.12359102244389028,-0.00950136418802069
0.12364089775561098,-0.01779789943367371
0.12369077306733167,-0.03124211423413868
0.12374064837905237,0.007155161718631585
0.12379052369077306,-0.0029134251554626964
0.12384039900249376,-0.011495332679156298
0.12389027431421447,0.0073246384492919436
0.12394014962593516,-0.01723486336556057
0.12399002493765586,-0.017787588740063236
0.12403990024937656,-0.040127951745933726
0.12408977556109725,-0.011056435667907644
0.12413965087281796,-0.004886649646741746
0.12418952618453866,-0.0069614037797317355
0.12423940149625935,-0.01063631628894277
0.12428927680798005,-0.012143053995854677
0.12433915211970074,-0.01576999143699747
0.12438902743142144,-0.022864781080129605
0.12443890274314215,-0.021673448515331706
0.12448877805486284,0.010710856854239517
0.12453865336658354,0.007627228445267292
0.12458852867830424,-0.019474967187969174
0.12463840399002493,0.03724407075139088
0.12468827930174564,-0.01738419673693584
0.12473815461346634,-0.03938897302931025
0.12478802992518703,0.00776014423719705
0.12483790523690773,-0.010277129339847936
0.12488778054862842,0.016529687494252245
0.12493765586034913,0.00992765326798603
0.12498753117206983,-0.026341773687397527
0.12503740648379053,-0.009829218605792124
0.12508728179551123,-0.013672254068990225
0.12513715710723192,-0.001284942268149087
0.12518703241895263,0.010877465079939785
0.1252369077306733,-0.0010856137565180037
0.12528678304239402,-0.029466412134853563
0.1253366583541147,-0.0091376861498236
0.1253865336658354,0.007703306437443517
0.12543640897755612,0.008088726815051695
0.1254862842892768,-0.016811152988358086
0.1255361596009975,-0.02421635895787702
0.1255860349127182,-0.015744388690935952
0.1256359102244389,-0.02368711192832089
0.1256857855361596,-0.010981322913363888
0.1257356608478803,-0.021533843330051632
0.125785536159601,-0.011580607741664221
0.12583541147132168,-0.02210820592887922
0.1258852867830424,-0.024423462123244574
0.1259351620947631,-0.0017862456994432365
0.12598503740648379,0.01151863968299847
0.1260349127182045,-0.029416945725488794
0.12608478802992518,0.016392040736187753
0.1261346633416459,-0.016566045061336236
0.1261845386533666,-0.00012812055160681644
0.12623441396508728,0.0003480104846387
0.126284289276808,0.004367715785883013
0.12633416458852867,-0.0024190831516275055
0.12638403990024938,-0.05410700964382838
0.1264339152119701,0.012657473064898478
0.12648379052369077,0.005898026923538583
0.12653366583541148,-0.013781650368053882
0.12658354114713216,0.009054805511837663
0.12663341645885287,-0.01676352177865447
0.12668329177057355,-0.029485220185267794
0.12673316708229426,-0.013889720833949477
0.12678304239401497,-0.032513381815446836
0.12683291770573565,-0.0021082459042764115
0.12688279301745636,-0.00734125769750358
0.12693266832917705,-0.005785815929350711
0.12698254364089775,-0.015845656508207774
0.12703241895261846,-0.0005424596576434635
0.12708229426433915,-0.00298373559156653
0.12713216957605986,-0.007066301114232361
0.12718204488778054,-0.008207605060623294
0.12723192019950125,-0.003544993122990174
0.12728179551122196,0.005887725284323958
0.12733167082294264,0.025233716775527402
0.12738154613466335,-0.00498421583648958
0.12743142144638403,0.014076193901113098
0.12748129675810474,-0.012142511839690513
0.12753117206982545,-0.023266449666731824
0.12758104738154613,-0.006992360711250506
0.12763092269326684,0.0033110238116456792
0.12768079800498752,0.010439069337978973
0.12773067331670823,0.005819560556538341
0.1277805486284289,-0.012860400315190632
0.12783042394014962,-0.0028269992179756694
0.12788029925187033,-0.005663310587332731
0.12793017456359101,0.005312350469900551
0.12798004987531172,0.0034761283148957113
0.1280299251870324,0.00844584243242407
0.12807980049875312,0.0197407932240606
0.12812967581047383,0.01984573626002331
0.1281795511221945,-0.017045923162477734
0.12822942643391522,0.00026279115339845893
0.1282793017456359,0.003287953715201482
0.1283291770573566,-0.010233916600631231
0.12837905236907732,0.02189361164885037
0.128428927680798,-0.009324177698420224
0.1284788029925187,-0.022474336476509576
0.1285286783042394,0.004560423092333194
0.1285785536159601,-0.004988711783799508
0.1286284289276808,-0.010299940284695618
0.1286783042394015,-0.01061754313928299
0.1287281795511222,-0.012094702436235451
0.12877805486284288,-0.016340029828356632
0.1288279301745636,-0.004399710156165714
0.1288778054862843,-0.009864494663715754
0.12892768079800498,-0.003357415414049542
0.1289775561097257,0.004666219017100331
0.12902743142144638,0.0048411287328230055
0.12907730673316709,0.004129375265709059
0.12912718204488777,-0.008921096788407412
0.12917705735660848,-0.004712541379609408
0.1292269326683292,0.014646982439703856
0.12927680798004987,-0.012181376844406788
0.12932668329177058,-0.0069416732178875125
0.12937655860349126,0.02364061126594078
0.12942643391521197,0.012325591742416438
0.12947630922693268,0.018346656059740514
0.12952618453865336,-8.497482482833132e-05
0.12957605985037407,-0.0013944574006953727
0.12962593516209475,0.0013226352003669235
0.12967581047381546,-0.018686144240346304
0.12972568578553617,0.03299444632102192
0.12977556109725685,-6.331508358207484e-05
0.12982543640897756,0.008438204833735221
0.12987531172069824,0.011244103452235903
0.12992518703241895,0.020676853988799974
0.12997506234413966,0.036904129882044334
0.13002493765586035,0.025186373891291945
0.13007481296758105,0.0019182730791535395
0.13012468827930174,0.005938005632031484
0.13017456359102245,0.039401975759410304
0.13022443890274316,-0.0003976400945970744
0.13027431421446384,-0.009690915197707673
0.13032418952618455,0.011859742906873277
0.13037406483790523,-0.029398084491106286
0.13042394014962594,0.026267185797918997
0.13047381546134662,-0.006325579617913062
0.13052369077306733,0.03652164500262593
0.13057356608478804,0.005869785694787708
0.13062344139650872,0.00449426776199939
0.13067331670822943,0.0027887812952458804
0.1307231920199501,0.031938466416267575
0.13077306733167082,0.004039067499236352
0.13082294264339153,0.03350799437709778
0.13087281795511221,-0.0038871560695202707
0.13092269326683292,0.01626610774991454
0.1309725685785536,0.027452888492043394
0.13102244389027431,0.011167619857275834
0.13107231920199502,0.0010827830469095114
0.1311221945137157,0.013680722615491277
0.13117206982543642,0.0230847293250335
0.1312219451371571,0.0026633174698352333
0.1312718204488778,0.006811352969252282
0.13132169576059852,0.0076757041321860175
0.1313715710723192,0.020393894212689674
0.1314214463840399,0.007538986782362736
0.1314713216957606,0.03176064641472177
0.1315211970074813,0.02894294205448105
0.13157107231920198,0.01704397528975067
0.1316209476309227,0.007194149846423418
0.1316708229426434,0.0123070328366785
0.13172069825436408,0.02736851609303285
0.1317705735660848,0.03132706709346216
0.13182044887780547,0.0009223001842786453
0.13187032418952618,0.02796696492954283
0.1319201995012469,0.003682773603719866
0.13197007481296757,0.01702323555929114
0.13201995012468828,0.01231221672291466
0.13206982543640897,0.028815733022491165
0.13211970074812968,0.018296693032299853
0.13216957605985039,0.036287428186083104
0.13221945137157107,0.011289158255664518
0.13226932668329178,0.00978910093813906
0.13231920199501246,0.033016096029608685
0.13236907730673317,0.03304658960346555
0.13241895261845388,0.025595557693847915
0.13246882793017456,0.03849359260081498
0.13251870324189527,0.038257443705254225
0.13256857855361595,0.031438689989543966
0.13261845386533666,0.03774191669130086
0.13266832917705737,0.0025955871991724284
0.13271820448877805,0.017543804682654297
0.13276807980049876,0.05641426102053651
0.13281795511221944,0.04580980099541734
0.13286783042394015,0.03553357094424739
0.13291770573566083,0.034921092537476106
0.13296758104738154,0.03404806168607924
0.13301745635910225,0.03595897176155763
0.13306733167082294,0.02453288772679451
0.13311720698254365,0.0045507030708632455
0.13316708229426433,0.02526993936773215
0.13321695760598504,0.02983837360190164
0.13326683291770575,0.02571221456663339
0.13331670822942643,0.022878612061797275
0.13336658354114714,-0.001322055915757788
0.13341645885286782,0.01286537694126757
0.13346633416458853,0.01924123527611788
0.13351620947630924,0.04268734723607953
0.13356608478802992,0.03935847799037114
0.13361596009975063,0.05219369013256794
0.1336658354114713,0.03584219039365213
0.13371571072319202,0.04256294582440798
0.13376558603491273,0.016351356505553416
0.1338154613466334,0.0063332600628647415
0.13386533665835412,0.0020610879628614708
0.1339152119700748,0.025107520541039822
0.13396508728179551,0.03372459264377683
0.1340149625935162,0.05130968812116228
0.1340648379052369,0.02712018983932738
0.13411471321695762,0.024774721650413112
0.1341645885286783,0.06166581809480001
0.134214463840399,0.03683695147083388
0.1342643391521197,0.04961843380194013
0.1343142144638404,0.07611292627046524
0.1343640897755611,0.0285637632969474
0.1344139650872818,0.05877262914589123
0.1344638403990025,0.04293632805288934
0.13451371571072318,0.01750161573520542
0.1345635910224439,0.02478171141189104
0.1346134663341646,0.02755112623908118
0.13466334164588528,0.04841503566921267
0.134713216957606,0.02096247014388483
0.13476309226932667,0.005777940582537926
0.13481296758104738,0.004342470032089461
0.1348628428927681,0.039311421788564914
0.13491271820448877,0.031373147192282194
0.13496259351620948,0.028986261093024206
0.13501246882793017,0.011462813347218298
0.13506234413965088,0.00697811730979302
0.13511221945137158,0.03573006247648772
0.13516209476309227,0.03396221389028668
0.13521197007481298,0.029170727753817967
0.13526184538653366,0.007475050905293587
0.13531172069825437,0.041043778399397476
0.13536159600997505,0.04858982744279178
0.13541147132169576,0.015082930990631157
0.13546134663341647,0.02413645243145068
0.13551122194513715,0.04598779700124614
0.13556109725685786,0.0437053067144755
0.13561097256857854,0.027544091182362753
0.13566084788029925,0.018616499113938086
0.13571072319201996,0.01787761620154167
0.13576059850374064,0.044703986367307144
0.13581047381546135,0.05526071389032272
0.13586034912718203,0.009813271937742174
0.13591022443890274,0.03994750779736311
0.13596009975062345,0.03223032569919458
0.13600997506234414,0.018626673492682003
0.13605985037406484,0.04230385430993424
0.13610972568578553,0.05097097238259446
0.13615960099750624,0.021142875742050128
0.13620947630922695,0.028992717996562258
0.13625935162094763,0.011611863966717723
0.13630922693266834,0.011523194832244451
0.13635910224438902,0.033216874730635955
0.13640897755610973,0.03664682248927104
0.1364588528678304,0.02895256317213664
0.13650872817955112,0.02214066104854415
0.13655860349127183,0.03752500285614401
0.1366084788029925,0.021964903886051275
0.13665835411471322,0.03751230957671226
0.1367082294264339,0.024734984492933026
0.1367581047381546,0.022457486468472072
0.13680798004987532,0.011796228179971805
0.136857855361596,0.03813378129465823
0.1369077306733167,0.035937468189268705
0.1369576059850374,0.033229466189551464
0.1370074812967581,0.02965989986161286
0.13705735660847881,0.03694015588984369
0.1371072319201995,0.03299088346972104
0.1371571072319202,0.027614878674000653
0.1372069825436409,0.04466395084683139
0.1372568578553616,0.009170604600448797
0.1373067331670823,0.018707098329519698
0.137356608478803,0.031916324693585824
0.1374064837905237,0.02762668140552747
0.13745635910224438,0.015052265908950715
0.1375062344139651,0.02448686021062787
0.1375561097256858,0.01719114753744544
0.13760598503740648,0.03167564804437187
0.1376558603491272,0.0003238365688897349
0.13770573566084787,0.03279136997844499
0.13775561097256858,0.02738570231826106
0.13780548628428926,-0.015164609374129341
0.13785536159600997,0.03349324262232817
0.13790523690773068,0.024591852129105744
0.13795511221945136,0.01918784056132398
0.13800498753117207,0.029216552838147676
0.13805486284289276,0.0206538600399231
0.13810473815461347,0.022942953925056353
0.13815461346633418,-0.0164610835909066
0.13820448877805486,0.03278789094638052
0.13825436408977557,0.019631123160653026
0.13830423940149625,0.007249405521075307
0.13835411471321696,0.031903853748386425
0.13840399002493767,0.028676982231464965
0.13845386533665835,0.01675341276957019
0.13850374064837906,0.046390824545567394
0.13855361596009974,0.027646804969946103
0.13860349127182045,0.034051135041228496
0.13865336658354116,0.02332799095909076
0.13870324189526184,0.034805382403044954
0.13875311720698255,0.00480359943355118
0.13880299251870323,0.008611707379195553
0.13885286783042394,0.015125398115947092
0.13890274314214462,0.0489944542537773
0.13895261845386533,0.0249276933124963
0.13900249376558604,0.0009473331069251301
0.13905236907730673,0.020791154531994684
0.13910224438902744,0.01619102404988804
0.13915211970074812,0.02736302988552071
0.13920199501246883,0.017545858128087302
0.13925187032418954,0.006057681845713142
0.13930174563591022,0.008360345638560248
0.13935162094763093,0.0055791870904912996
0.1394014962593516,0.013801311027358234
0.13945137157107232,0.01249868964812743
0.13950124688279303,-0.00780620265889578
0.1395511221945137,0.0018361424284802329
0.13960099750623442,0.014925499148359445
0.1396508728179551,-0.021778614546198387
0.1397007481296758,0.023227817543803167
0.13975062344139652,0.012440200591952926
0.1398004987531172,0.01642801299273237
0.1398503740648379,0.015568927794403527
0.1399002493765586,0.011783932362106843
0.1399501246882793,0.029704789677281584
0.14,0.01610491140695768
0.1400498753117207,-0.014065242105269318
0.1400997506234414,0.006555775672116878
0.1401496259351621,0.0337535281533423
0.1401995012468828,0.023206140119606762
0.14024937655860348,0.022465230343087582
0.1402992518703242,0.013746517236828933
0.1403491271820449,0.029449501298979015
0.14039900249376558,0.03189627881998951
0.1404488778054863,0.02814368035056616
0.14049875311720697,0.0020150892193805184
0.14054862842892768,0.011350352766712512
0.1405985037406484,0.012735425347176789
0.14064837905236907,0.013460034157343252
0.14069825436408978,-0.0009871280195672795
0.14074812967581046,0.00300966180883928
0.14079800498753117,0.00842871327735235
0.14084788029925188,-0.017344927172293058
0.14089775561097256,-0.007449425413496144
0.14094763092269327,0.0020083921036561578
0.14099750623441396,0.006028801788932487
0.14104738154613466,0.011703642201821483
0.14109725685785537,0.004732573260155819
0.14114713216957606,0.014059482195061358
0.14119700748129677,0.021133944968675662
0.14124688279301745,0.01766304803692275
0.14129675810473816,-0.0021130828408149876
0.14134663341645887,-0.005135313786915194
0.14139650872817955,0.013855035399633632
0.14144638403990026,0.013471430042466113
0.14149625935162094,0.0005035326324469799
0.14154613466334165,0.0007690994015184451
0.14159600997506233,0.005670260348330102
0.14164588528678304,0.015260323086537988
0.14169576059850375,0.03024028971702259
0.14174563591022443,0.0013703242368867216
0.14179551122194514,-0.017775897316267004
0.14184538653366582,0.012664355810016448
0.14189526184538653,0.0038815356171730707
0.14194513715710724,-0.0017527438161589514
0.14199501246882792,-0.015343944873625922
0.14204488778054863,-0.015139171708003017
0.14209476309226932,-0.007661249461489375
0.14214463840399003,0.02229231573988253
0.14219451371571074,0.010406966442684159
0.14224438902743142,0.009129838014764831
0.14229426433915213,0.023874846514776466
0.1423441396508728,0.004887141895892896
0.14239401496259352,-0.002720491879833898
0.14244389027431423,-0.00018128785574098158
0.1424937655860349,-0.015297967737030129
0.14254364089775562,0.009533392907295962
0.1425935162094763,-0.027106753968622967
0.142643391521197,-0.005430431634626168
0.1426932668329177,-0.0077207564991565465
0.1427431421446384,0.0030449943693704896
0.1427930174563591,-0.0065270057981796316
0.1428428927680798,-0.017120583341826756
0.1428927680798005,-0.00827464784494757
0.14294264339152118,-0.007416400499398283
0.1429925187032419,0.020398537696522095
0.1430423940149626,-0.02166203998558769
0.14309226932668329,-0.02632914911284282
0.143142144638404,0.009789237672667928
0.14319201995012468,0.015415519256652167
0.1432418952618454,-0.0038181212962275553
0.1432917705735661,-0.011703733099726598
0.14334164588528678,-0.00981625211084699
0.1433915211970075,-0.010737955178167537
0.14344139650872817,-0.014184894034898771
0.14349127182044888,0.003122664030161688
0.1435411471321696,-0.007630735204955148
0.14359102244389027,0.016025230752846703
0.14364089775561098,-0.0031022244825421076
0.14369077306733166,-0.020461438481174148
0.14374064837905237,0.006488103493016751
0.14379052369077308,-0.016607698712354783
0.14384039900249376,-0.008681075512940128
0.14389027431421447,-0.0036231774981911845
0.14394014962593515,-0.018710565333580394
0.14399002493765586,-0.00989292497928399
0.14403990024937655,-0.016667247254016766
0.14408977556109726,0.014078209597191964
0.14413965087281796,-0.01153071484702851
0.14418952618453865,0.022063740032907196
0.14423940149625936,-0.027591146036687903
0.14428927680798004,0.014752598298174836
0.14433915211970075,-0.03898330510705742
0.14438902743142146,-0.016660706104424463
0.14443890274314214,0.022848573527553026
0.14448877805486285,-0.009202421788429446
0.14453865336658353,0.012638781209418528
0.14458852867830424,-0.006963099105290386
0.14463840399002495,-0.005114482070169207
0.14468827930174563,-0.007098986280359178
0.14473815461346634,-0.0024975017103990417
